i,ii,iii,avr,avl,avf,v1,v2,v3,v4,v5,v6,vx,vy,vz
-0.3385,-1.8865,-1.5475,1.1125,0.604,-1.7175,0.917,0.6035,0.8455,0.8845,0.7785,0.7815,0.046,-1.12,0.0885
-0.3305,-1.8865,-1.556,1.1085,0.6125,-1.7215,0.915,0.608,0.8465,0.8885,0.778,0.7815,0.045,-1.1235,0.0965
-0.3305,-1.888,-1.557,1.1095,0.613,-1.723,0.9155,0.6075,0.8475,0.889,0.777,0.7795,0.0425,-1.126,0.0885
-0.33,-1.8845,-1.554,1.1075,0.6115,-1.7195,0.915,0.6075,0.849,0.891,0.7795,0.782,0.042,-1.12,0.083
-0.327,-1.8835,-1.5565,1.105,0.6145,-1.72,0.915,0.6075,0.851,0.892,0.7835,0.785,0.044,-1.1185,0.083
-0.331,-1.8865,-1.5555,1.1085,0.612,-1.7215,0.912,0.603,0.848,0.8885,0.781,0.7825,0.0445,-1.1255,0.0795
-0.337,-1.8895,-1.552,1.1135,0.6075,-1.721,0.914,0.6025,0.85,0.889,0.7815,0.781,0.043,-1.1315,0.0725
-0.342,-1.8935,-1.551,1.118,0.604,-1.7225,0.9175,0.6045,0.853,0.888,0.7805,0.779,0.042,-1.134,0.069
-0.3425,-1.8855,-1.542,1.114,0.599,-1.7135,0.917,0.6055,0.8525,0.8905,0.7815,0.781,0.0425,-1.123,0.078
-0.336,-1.878,-1.5415,1.107,0.6025,-1.71,0.9165,0.605,0.857,0.896,0.7835,0.7845,0.0445,-1.111,0.0835
-0.3335,-1.8795,-1.546,1.1065,0.606,-1.713,0.9195,0.6065,0.859,0.895,0.785,0.786,0.044,-1.1065,0.083
-0.3425,-1.879,-1.536,1.1105,0.5965,-1.708,0.9205,0.607,0.8585,0.894,0.7865,0.787,0.0435,-1.102,0.084
-0.346,-1.8795,-1.5335,1.1125,0.5935,-1.7065,0.92,0.6065,0.859,0.893,0.7855,0.7855,0.0455,-1.0995,0.086
-0.344,-1.8785,-1.534,1.111,0.595,-1.7065,0.92,0.608,0.8595,0.893,0.7845,0.786,0.046,-1.103,0.0855
-0.34,-1.876,-1.535,1.108,0.597,-1.7055,0.921,0.6105,0.8605,0.8935,0.7835,0.7845,0.0435,-1.1045,0.083
-0.336,-1.874,-1.537,1.105,0.6,-1.7055,0.926,0.6155,0.8635,0.8975,0.7875,0.7865,0.0415,-1.1015,0.0785
-0.335,-1.8685,-1.5325,1.102,0.5985,-1.7005,0.9305,0.619,0.867,0.9015,0.79,0.79,0.042,-1.095,0.077
-0.3365,-1.866,-1.5295,1.101,0.5965,-1.698,0.933,0.62,0.868,0.9,0.79,0.792,0.043,-1.0865,0.084
-0.335,-1.8595,-1.5245,1.097,0.5945,-1.6925,0.936,0.621,0.869,0.9005,0.7915,0.795,0.0435,-1.0795,0.085
-0.3385,-1.85,-1.511,1.094,0.586,-1.6805,0.939,0.6225,0.871,0.905,0.794,0.796,0.041,-1.067,0.082
-0.346,-1.85,-1.503,1.098,0.5785,-1.677,0.942,0.623,0.873,0.907,0.7935,0.7955,0.0395,-1.058,0.08
-0.337,-1.8455,-1.508,1.091,0.5855,-1.677,0.9455,0.6255,0.8755,0.908,0.7965,0.795,0.0385,-1.0605,0.0735
-0.3375,-1.8515,-1.5135,1.0945,0.5875,-1.6825,0.9465,0.6265,0.876,0.9075,0.7965,0.7955,0.039,-1.0625,0.0715
-0.3435,-1.86,-1.516,1.1015,0.586,-1.6885,0.947,0.627,0.875,0.908,0.7955,0.7965,0.041,-1.062,0.074
-0.34,-1.858,-1.517,1.099,0.5885,-1.688,0.95,0.6285,0.8765,0.91,0.799,0.798,0.042,-1.0645,0.07
-0.3395,-1.8585,-1.518,1.099,0.589,-1.6885,0.952,0.629,0.8775,0.9095,0.797,0.7975,0.043,-1.0695,0.066
-0.3385,-1.854,-1.515,1.0965,0.5875,-1.685,0.955,0.6305,0.877,0.91,0.796,0.796,0.0405,-1.0655,0.067
-0.3375,-1.852,-1.514,1.0945,0.588,-1.6835,0.9545,0.628,0.8745,0.9075,0.7945,0.795,0.0405,-1.065,0.065
-0.3355,-1.853,-1.517,1.094,0.5905,-1.685,0.954,0.6255,0.874,0.9055,0.7935,0.7925,0.041,-1.073,0.062
-0.331,-1.853,-1.5215,1.092,0.595,-1.6875,0.955,0.6265,0.8755,0.9075,0.792,0.7915,0.0405,-1.077,0.059
-0.327,-1.8545,-1.527,1.091,0.6,-1.6915,0.96,0.6295,0.8795,0.911,0.793,0.793,0.04,-1.082,0.054
-0.333,-1.853,-1.52,1.093,0.5935,-1.6865,0.962,0.6305,0.88,0.911,0.795,0.794,0.04,-1.075,0.058
-0.3345,-1.8495,-1.5145,1.0915,0.59,-1.682,0.9615,0.6325,0.878,0.912,0.7945,0.795,0.043,-1.0695,0.062
-0.334,-1.845,-1.511,1.0895,0.5885,-1.6785,0.9645,0.635,0.88,0.914,0.7955,0.7965,0.044,-1.0635,0.0665
-0.331,-1.8395,-1.508,1.085,0.5885,-1.674,0.963,0.635,0.881,0.914,0.797,0.7985,0.0485,-1.064,0.0685
-0.3295,-1.844,-1.514,1.0865,0.592,-1.679,0.9645,0.6365,0.8825,0.918,0.7995,0.8005,0.047,-1.0695,0.068
-0.333,-1.846,-1.5125,1.0895,0.5895,-1.6795,0.967,0.636,0.885,0.921,0.801,0.8005,0.045,-1.063,0.07
-0.33,-1.8455,-1.515,1.0875,0.592,-1.68,0.9685,0.64,0.888,0.9245,0.804,0.803,0.048,-1.0685,0.0655
-0.335,-1.8525,-1.517,1.094,0.5905,-1.685,0.967,0.641,0.89,0.9275,0.8075,0.804,0.0465,-1.071,0.0645
-0.3375,-1.8515,-1.513,1.0945,0.5875,-1.6825,0.958,0.6345,0.8895,0.9275,0.8075,0.801,0.0495,-1.0685,0.064
-0.3335,-1.8395,-1.5055,1.0865,0.586,-1.673,0.9465,0.629,0.8825,0.922,0.803,0.7985,0.05,-1.0635,0.066
-0.3235,-1.8245,-1.5005,1.074,0.5885,-1.663,0.94,0.626,0.8805,0.919,0.8025,0.8,0.051,-1.0535,0.0715
-0.3135,-1.823,-1.509,1.0685,0.5975,-1.6665,0.9375,0.627,0.8825,0.92,0.8035,0.8025,0.0505,-1.0585,0.072
-0.3085,-1.8255,-1.517,1.067,0.604,-1.6715,0.935,0.627,0.8825,0.921,0.8035,0.8025,0.05,-1.0665,0.0705
-0.3035,-1.827,-1.523,1.0655,0.6095,-1.6755,0.927,0.623,0.884,0.9225,0.8065,0.807,0.0555,-1.072,0.0725
-0.306,-1.8265,-1.52,1.0665,0.607,-1.6735,0.9185,0.619,0.883,0.9225,0.8075,0.808,0.058,-1.0665,0.077
-0.307,-1.824,-1.517,1.0655,0.605,-1.671,0.9175,0.6205,0.8845,0.9255,0.81,0.808,0.0605,-1.06,0.0765
-0.3055,-1.828,-1.522,1.067,0.608,-1.6755,0.91,0.6205,0.8855,0.924,0.81,0.808,0.0635,-1.065,0.075
-0.2975,-1.8225,-1.525,1.0595,0.6135,-1.674,0.904,0.6175,0.886,0.926,0.8115,0.8095,0.0655,-1.0645,0.076
-0.29,-1.821,-1.5315,1.055,0.6205,-1.6765,0.904,0.6195,0.8895,0.9295,0.8175,0.8155,0.0685,-1.0675,0.079
-0.294,-1.8235,-1.53,1.0585,0.618,-1.677,0.903,0.619,0.887,0.927,0.817,0.8145,0.069,-1.0685,0.0785
-0.2955,-1.8215,-1.526,1.058,0.6155,-1.674,0.9045,0.6175,0.883,0.9245,0.814,0.8125,0.069,-1.07,0.078
-0.298,-1.827,-1.5285,1.0625,0.615,-1.678,0.9055,0.616,0.8815,0.92,0.8095,0.811,0.0695,-1.077,0.0755
-0.3045,-1.829,-1.5235,1.067,0.6095,-1.6765,0.907,0.614,0.878,0.918,0.806,0.8095,0.07,-1.0715,0.074
-0.3045,-1.833,-1.528,1.069,0.6115,-1.681,0.9065,0.6145,0.8765,0.917,0.8075,0.8095,0.072,-1.0755,0.0735
-0.3015,-1.834,-1.5325,1.0675,0.6155,-1.6835,0.9065,0.6135,0.8745,0.9175,0.8075,0.809,0.0695,-1.075,0.0725
-0.2995,-1.8315,-1.5315,1.0655,0.616,-1.6815,0.9035,0.6125,0.875,0.9175,0.806,0.811,0.0705,-1.0685,0.0815
-0.2975,-1.8365,-1.539,1.0665,0.6205,-1.688,0.901,0.611,0.8735,0.9145,0.807,0.811,0.0715,-1.076,0.09
-0.298,-1.8325,-1.534,1.065,0.618,-1.6835,0.899,0.604,0.869,0.9115,0.8055,0.8115,0.068,-1.068,0.0925
-0.2925,-1.8285,-1.5355,1.06,0.6215,-1.682,0.893,0.5985,0.867,0.9095,0.804,0.813,0.07,-1.0715,0.092
-0.2905,-1.8255,-1.5355,1.0575,0.6225,-1.6805,0.89,0.597,0.863,0.9085,0.8045,0.8125,0.071,-1.0745,0.0925
-0.2885,-1.827,-1.5385,1.0575,0.6255,-1.683,0.888,0.597,0.862,0.907,0.805,0.8135,0.0705,-1.0715,0.096
-0.2805,-1.833,-1.553,1.0565,0.636,-1.693,0.8875,0.5955,0.863,0.9055,0.8045,0.8125,0.071,-1.0845,0.094
-0.273,-1.8295,-1.557,1.051,0.642,-1.6935,0.887,0.5915,0.861,0.905,0.803,0.814,0.0725,-1.0825,0.1015
-0.2655,-1.823,-1.558,1.044,0.646,-1.691,0.884,0.5915,0.8605,0.9045,0.803,0.816,0.075,-1.0815,0.108
-0.267,-1.823,-1.5565,1.045,0.645,-1.69,0.879,0.588,0.855,0.902,0.7995,0.8135,0.0795,-1.0845,0.104
-0.269,-1.8225,-1.5535,1.0455,0.6425,-1.688,0.876,0.586,0.8525,0.901,0.8005,0.8135,0.0815,-1.0725,0.1085
-0.2665,-1.816,-1.55,1.041,0.6415,-1.6835,0.8755,0.589,0.855,0.9025,0.8045,0.816,0.082,-1.063,0.1145
-0.2565,-1.812,-1.555,1.034,0.6495,-1.684,0.8785,0.5905,0.858,0.905,0.806,0.8185,0.0825,-1.062,0.1175
-0.2555,-1.8065,-1.551,1.0305,0.648,-1.679,0.8775,0.59,0.8575,0.9025,0.803,0.816,0.0805,-1.0625,0.1095
-0.264,-1.806,-1.542,1.0345,0.639,-1.674,0.876,0.5885,0.856,0.9,0.8,0.812,0.077,-1.063,0.1045
-0.2755,-1.804,-1.5285,1.0395,0.6265,-1.6665,0.8775,0.587,0.8585,0.901,0.8025,0.812,0.075,-1.0545,0.106
-0.283,-1.806,-1.523,1.0445,0.62,-1.665,0.8785,0.5865,0.858,0.9015,0.802,0.8135,0.077,-1.053,0.104
-0.2825,-1.8065,-1.524,1.044,0.621,-1.6655,0.8805,0.5905,0.8585,0.903,0.803,0.815,0.0775,-1.053,0.1015
-0.2825,-1.8035,-1.521,1.0425,0.619,-1.6625,0.881,0.592,0.859,0.9045,0.8045,0.8165,0.078,-1.051,0.097
-0.276,-1.8075,-1.531,1.0415,0.6275,-1.6695,0.884,0.5955,0.861,0.907,0.8065,0.8195,0.081,-1.0565,0.102
-0.277,-1.814,-1.537,1.045,0.63,-1.676,0.885,0.599,0.864,0.91,0.8105,0.8215,0.084,-1.062,0.1025
-0.275,-1.8225,-1.5475,1.0485,0.636,-1.6855,0.887,0.601,0.8685,0.912,0.8125,0.822,0.086,-1.0725,0.099
-0.279,-1.828,-1.5495,1.0535,0.6355,-1.689,0.8895,0.6025,0.8695,0.911,0.813,0.82,0.087,-1.0765,0.0985
-0.2915,-1.834,-1.5425,1.0625,0.6255,-1.6885,0.8905,0.6035,0.8695,0.912,0.812,0.8185,0.0865,-1.071,0.097
-0.2945,-1.8305,-1.536,1.062,0.621,-1.6835,0.896,0.6055,0.8735,0.9145,0.814,0.821,0.087,-1.0685,0.0995
-0.2875,-1.8205,-1.533,1.054,0.6225,-1.677,0.8985,0.611,0.8775,0.92,0.818,0.822,0.087,-1.0695,0.097
-0.28,-1.819,-1.5385,1.049,0.6295,-1.679,0.9025,0.6165,0.885,0.928,0.823,0.8245,0.085,-1.068,0.0915
-0.281,-1.823,-1.5415,1.052,0.63,-1.6825,0.9075,0.618,0.889,0.9325,0.8285,0.8255,0.083,-1.0705,0.0875
-0.284,-1.8245,-1.5405,1.054,0.6285,-1.6825,0.9125,0.6225,0.8925,0.9365,0.83,0.8275,0.0815,-1.0705,0.0805
-0.293,-1.8245,-1.5315,1.0585,0.619,-1.678,0.9125,0.6235,0.8955,0.9405,0.8295,0.827,0.082,-1.0675,0.0715
-0.2995,-1.8285,-1.529,1.064,0.6145,-1.679,0.912,0.6235,0.8965,0.939,0.827,0.825,0.0805,-1.069,0.0715
-0.298,-1.8315,-1.5335,1.0645,0.6175,-1.6825,0.916,0.625,0.8945,0.9315,0.8225,0.823,0.0775,-1.0695,0.079
-0.2965,-1.833,-1.5365,1.0645,0.62,-1.685,0.918,0.6285,0.895,0.9275,0.82,0.8225,0.0775,-1.072,0.083
-0.2895,-1.8335,-1.544,1.061,0.6275,-1.689,0.918,0.6295,0.895,0.9265,0.819,0.823,0.078,-1.0795,0.0845
-0.2795,-1.835,-1.5555,1.057,0.638,-1.6955,0.9155,0.6285,0.893,0.924,0.8175,0.819,0.08,-1.094,0.079
-0.2805,-1.8405,-1.5595,1.06,0.6395,-1.7,0.914,0.6275,0.891,0.9205,0.8165,0.815,0.08,-1.106,0.079
-0.2865,-1.8465,-1.5595,1.066,0.6365,-1.703,0.908,0.617,0.879,0.9115,0.81,0.808,0.0755,-1.111,0.087
-0.295,-1.8485,-1.5535,1.0715,0.629,-1.701,0.905,0.609,0.87,0.904,0.802,0.8025,0.0725,-1.106,0.0885
-0.307,-1.85,-1.543,1.0785,0.6175,-1.6965,0.904,0.604,0.864,0.9,0.798,0.7985,0.0665,-1.092,0.093
-0.321,-1.863,-1.5415,1.092,0.61,-1.7025,0.904,0.6,0.8595,0.8975,0.7935,0.794,0.06,-1.089,0.096
-0.332,-1.876,-1.5435,1.104,0.6055,-1.71,0.9055,0.598,0.857,0.8935,0.789,0.7915,0.057,-1.097,0.0925
-0.3325,-1.8785,-1.5455,1.1055,0.6065,-1.7125,0.9035,0.5955,0.854,0.8895,0.7865,0.7895,0.0555,-1.0975,0.0985
-0.336,-1.879,-1.543,1.1075,0.603,-1.7115,0.9065,0.5965,0.8545,0.8905,0.7865,0.7895,0.0525,-1.096,0.101
-0.339,-1.8815,-1.542,1.1105,0.601,-1.712,0.9095,0.5995,0.853,0.889,0.7855,0.7865,0.0475,-1.1055,0.096
-0.339,-1.8795,-1.5395,1.109,0.6,-1.7095,0.911,0.6005,0.853,0.8885,0.7835,0.785,0.045,-1.1055,0.094
-0.342,-1.8765,-1.534,1.109,0.5955,-1.7055,0.913,0.602,0.8545,0.8895,0.782,0.7855,0.042,-1.101,0.0935
-0.3415,-1.8815,-1.5395,1.1115,0.5985,-1.711,0.9145,0.6025,0.8565,0.8895,0.7805,0.7825,0.0385,-1.108,0.0905
-0.335,-1.882,-1.5465,1.1085,0.6055,-1.7145,0.917,0.6055,0.8575,0.8915,0.7825,0.784,0.0355,-1.111,0.091
-0.335,-1.88,-1.5445,1.1075,0.6045,-1.7125,0.9175,0.6075,0.857,0.8935,0.7845,0.786,0.035,-1.103,0.0945
-0.338,-1.8785,-1.54,1.108,0.601,-1.7095,0.9165,0.6055,0.8555,0.892,0.783,0.785,0.034,-1.1005,0.093
-0.335,-1.876,-1.5405,1.1055,0.6025,-1.7085,0.9165,0.605,0.853,0.8865,0.7775,0.781,0.0325,-1.1105,0.091
-0.3325,-1.877,-1.544,1.1045,0.6055,-1.7105,0.9185,0.6045,0.8545,0.888,0.7765,0.78,0.0335,-1.11,0.088
-0.3295,-1.8805,-1.5505,1.105,0.6105,-1.7155,0.917,0.604,0.855,0.891,0.7785,0.782,0.035,-1.1155,0.087
-0.3295,-1.883,-1.553,1.1065,0.6115,-1.718,0.9165,0.603,0.8545,0.8895,0.778,0.78,0.0355,-1.122,0.0835
-0.3285,-1.883,-1.554,1.106,0.6125,-1.7185,0.9155,0.6035,0.854,0.8885,0.7755,0.7775,0.036,-1.1245,0.0775
-0.332,-1.888,-1.556,1.11,0.612,-1.722,0.9125,0.601,0.851,0.8825,0.7715,0.7725,0.0345,-1.134,0.078
-0.3355,-1.8885,-1.553,1.112,0.609,-1.721,0.9105,0.5995,0.8485,0.8805,0.771,0.772,0.0345,-1.1355,0.0785
-0.334,-1.885,-1.5505,1.1095,0.6085,-1.718,0.9075,0.5985,0.8455,0.877,0.769,0.772,0.035,-1.136,0.0805
-0.335,-1.8805,-1.545,1.108,0.6045,-1.713,0.908,0.5965,0.8465,0.876,0.7665,0.77,0.0335,-1.1275,0.085
-0.3315,-1.878,-1.5465,1.1045,0.607,-1.7125,0.9085,0.5985,0.848,0.8785,0.7675,0.773,0.0335,-1.1175,0.0885
-0.33,-1.8795,-1.549,1.1045,0.6095,-1.7145,0.909,0.6,0.8475,0.879,0.77,0.7765,0.035,-1.12,0.09
-0.3345,-1.888,-1.553,1.111,0.609,-1.7205,0.91,0.598,0.846,0.8785,0.771,0.775,0.036,-1.1245,0.092
-0.3455,-1.9015,-1.5555,1.1235,0.605,-1.7285,0.9085,0.5985,0.8445,0.877,0.769,0.773,0.036,-1.123,0.0955
-0.3465,-1.9025,-1.5555,1.1245,0.604,-1.729,0.9115,0.602,0.847,0.881,0.773,0.7765,0.036,-1.1225,0.0925
-0.3365,-1.8995,-1.563,1.118,0.613,-1.7315,0.913,0.602,0.8485,0.8815,0.773,0.775,0.036,-1.1395,0.085
-0.334,-1.898,-1.564,1.1155,0.615,-1.731,0.9105,0.6005,0.848,0.8795,0.7705,0.7725,0.035,-1.1405,0.0815
-0.331,-1.8955,-1.564,1.113,0.616,-1.73,0.909,0.5985,0.846,0.877,0.772,0.775,0.0355,-1.1265,0.0855
-0.329,-1.9,-1.571,1.1145,0.621,-1.736,0.912,0.6005,0.8485,0.8795,0.7745,0.779,0.037,-1.129,0.0895
-0.333,-1.908,-1.575,1.1205,0.621,-1.7415,0.915,0.6055,0.853,0.883,0.774,0.7795,0.0375,-1.14,0.085
-0.338,-1.9105,-1.572,1.1245,0.6165,-1.7415,0.913,0.6045,0.85,0.88,0.771,0.778,0.0375,-1.1435,0.0865
-0.3425,-1.911,-1.568,1.1265,0.6125,-1.7395,0.913,0.603,0.85,0.8795,0.771,0.7795,0.0365,-1.1405,0.0895
-0.346,-1.909,-1.5625,1.1275,0.608,-1.7355,0.9135,0.6035,0.852,0.8795,0.772,0.7785,0.035,-1.1375,0.09
-0.345,-1.9055,-1.5595,1.125,0.607,-1.7325,0.912,0.6015,0.851,0.878,0.772,0.779,0.0365,-1.1295,0.093
-0.342,-1.9075,-1.5645,1.1245,0.611,-1.736,0.913,0.6015,0.85,0.88,0.772,0.7795,0.037,-1.134,0.091
-0.343,-1.906,-1.562,1.1245,0.609,-1.734,0.915,0.6045,0.853,0.885,0.7725,0.7795,0.036,-1.1335,0.092
-0.347,-1.901,-1.5535,1.124,0.603,-1.727,0.9145,0.604,0.8525,0.8875,0.773,0.78,0.0355,-1.1255,0.095
-0.35,-1.9,-1.5495,1.125,0.5995,-1.725,0.9155,0.6025,0.8515,0.885,0.7715,0.7785,0.035,-1.127,0.095
-0.3535,-1.8995,-1.5455,1.1265,0.596,-1.723,0.916,0.602,0.85,0.8815,0.7695,0.7755,0.035,-1.1265,0.0895
-0.3535,-1.9015,-1.5475,1.127,0.597,-1.7245,0.914,0.601,0.8485,0.879,0.768,0.7735,0.0325,-1.135,0.089
-0.35,-1.908,-1.5575,1.1285,0.6035,-1.733,0.9175,0.6045,0.852,0.881,0.7695,0.776,0.0325,-1.141,0.0895
-0.349,-1.909,-1.5595,1.1285,0.605,-1.7345,0.922,0.6075,0.854,0.883,0.771,0.78,0.034,-1.139,0.083
-0.347,-1.9075,-1.5605,1.127,0.6065,-1.734,0.9235,0.608,0.8545,0.8855,0.774,0.7805,0.0325,-1.1375,0.085
-0.3475,-1.9085,-1.5605,1.1275,0.6065,-1.7345,0.9255,0.611,0.8565,0.887,0.776,0.7815,0.0325,-1.1385,0.0875
-0.3475,-1.906,-1.5575,1.1265,0.6045,-1.732,0.926,0.6075,0.8555,0.888,0.775,0.7825,0.0315,-1.137,0.088
-0.3445,-1.9075,-1.562,1.126,0.6085,-1.7345,0.925,0.609,0.8555,0.89,0.774,0.783,0.0335,-1.14,0.0885
-0.341,-1.906,-1.564,1.1235,0.611,-1.735,0.924,0.6105,0.853,0.8875,0.7725,0.7805,0.0335,-1.147,0.0835
-0.339,-1.904,-1.5645,1.1215,0.6125,-1.7345,0.926,0.6105,0.8545,0.8865,0.771,0.776,0.0305,-1.15,0.0765
-0.3385,-1.914,-1.575,1.1265,0.618,-1.7445,0.935,0.619,0.86,0.893,0.7745,0.78,0.03,-1.1535,0.0745
-0.343,-1.924,-1.5805,1.1335,0.6185,-1.7525,0.9365,0.6205,0.862,0.8935,0.776,0.781,0.0275,-1.151,0.078
-0.347,-1.9245,-1.5775,1.136,0.615,-1.7515,0.9315,0.616,0.861,0.889,0.774,0.779,0.029,-1.1515,0.083
-0.3455,-1.9215,-1.5755,1.1335,0.615,-1.749,0.93,0.6145,0.857,0.8845,0.773,0.7775,0.029,-1.152,0.083
-0.346,-1.922,-1.5755,1.1345,0.6145,-1.749,0.933,0.6195,0.8585,0.886,0.772,0.775,0.0265,-1.1495,0.0795
-0.3455,-1.9185,-1.5725,1.132,0.613,-1.7455,0.9365,0.623,0.861,0.8895,0.774,0.7775,0.0265,-1.1445,0.0855
-0.3445,-1.9155,-1.57,1.13,0.6125,-1.743,0.937,0.6215,0.8575,0.8865,0.772,0.7745,0.0255,-1.139,0.089
-0.35,-1.9215,-1.571,1.136,0.61,-1.7465,0.9395,0.6215,0.854,0.882,0.7675,0.77,0.0225,-1.1465,0.084
-0.3545,-1.9325,-1.578,1.1435,0.6115,-1.7555,0.939,0.6235,0.8525,0.8805,0.767,0.769,0.022,-1.1595,0.085
-0.358,-1.943,-1.5845,1.1505,0.613,-1.764,0.945,0.6295,0.854,0.8805,0.7615,0.7675,0.022,-1.1695,0.0785
-0.365,-1.95,-1.5845,1.1575,0.6095,-1.7675,0.9595,0.6375,0.8535,0.8745,0.754,0.761,0.0195,-1.1755,0.0745
-0.3675,-1.955,-1.5875,1.1615,0.61,-1.7715,0.971,0.6475,0.854,0.8715,0.7525,0.7565,0.0155,-1.1765,0.0765
-0.3665,-1.955,-1.588,1.161,0.6105,-1.772,0.989,0.657,0.8555,0.8695,0.7465,0.752,0.0075,-1.1785,0.0705
-0.3615,-1.964,-1.602,1.163,0.62,-1.783,1.0095,0.672,0.8555,0.8605,0.7375,0.7445,0.0025,-1.1985,0.067
-0.36,-1.9785,-1.6175,1.1695,0.6285,-1.7985,1.023,0.686,0.855,0.8535,0.73,0.741,0.0,-1.2155,0.065
-0.365,-1.989,-1.6235,1.177,0.629,-1.8065,1.0385,0.6975,0.852,0.845,0.7195,0.7345,-0.0055,-1.221,0.0635
-0.369,-2.0,-1.6305,1.1845,0.6305,-1.8155,1.063,0.715,0.855,0.836,0.71,0.7255,-0.0125,-1.2355,0.055
-0.374,-2.006,-1.6315,1.19,0.6285,-1.819,1.087,0.7295,0.866,0.839,0.7085,0.7205,-0.017,-1.2375,0.0415
-0.3805,-2.017,-1.6355,1.1985,0.627,-1.8265,1.1125,0.748,0.877,0.8425,0.7055,0.712,-0.0245,-1.242,0.0235
-0.387,-2.025,-1.6375,1.206,0.625,-1.832,1.1375,0.7665,0.8895,0.8485,0.7045,0.7075,-0.0295,-1.251,0.0035
-0.3825,-2.024,-1.6415,1.203,0.629,-1.833,1.1585,0.7895,0.912,0.865,0.7125,0.712,-0.0235,-1.2495,-0.0035
-0.3785,-2.0245,-1.646,1.2015,0.6335,-1.8355,1.1795,0.818,0.94,0.89,0.728,0.7195,-0.015,-1.247,-0.0095
-0.3745,-2.0225,-1.6475,1.1985,0.6365,-1.8355,1.199,0.841,0.969,0.9165,0.7455,0.725,-0.006,-1.2495,-0.027
-0.36,-2.0225,-1.662,1.1915,0.6505,-1.8425,1.234,0.8905,1.0165,0.954,0.7675,0.734,0.009,-1.2615,-0.049
-0.3465,-2.0245,-1.6775,1.1855,0.665,-1.851,1.2705,0.95,1.08,1.006,0.798,0.7485,0.029,-1.2715,-0.0765
-0.3355,-2.036,-1.7,1.186,0.682,-1.868,1.3055,1.001,1.1405,1.058,0.829,0.7625,0.0495,-1.282,-0.103
-0.3205,-2.0375,-1.717,1.179,0.698,-1.8775,1.3525,1.0705,1.2185,1.128,0.8725,0.7855,0.0775,-1.277,-0.1345
-0.301,-2.029,-1.7275,1.165,0.713,-1.8785,1.39,1.136,1.2985,1.2005,0.918,0.8045,0.11,-1.2755,-0.174
-0.288,-2.029,-1.7415,1.158,0.7265,-1.8855,1.4335,1.2,1.3625,1.2565,0.9515,0.816,0.137,-1.2875,-0.208
-0.272,-2.014,-1.742,1.1425,0.735,-1.8785,1.4775,1.259,1.431,1.321,0.9965,0.8375,0.168,-1.2875,-0.246
-0.2565,-1.9985,-1.742,1.127,0.7425,-1.8705,1.507,1.3025,1.506,1.4015,1.048,0.861,0.2015,-1.28,-0.285
-0.2355,-1.9895,-1.754,1.1125,0.759,-1.872,1.5595,1.3815,1.6085,1.5015,1.1095,0.89,0.243,-1.2705,-0.3275
-0.2035,-1.9725,-1.769,1.088,0.7825,-1.871,1.62,1.486,1.7425,1.6255,1.1905,0.929,0.2965,-1.264,-0.377
-0.172,-1.9325,-1.7605,1.052,0.794,-1.8465,1.6455,1.5685,1.882,1.7725,1.289,0.982,0.3595,-1.2335,-0.432
-0.1245,-1.882,-1.7575,1.003,0.8165,-1.82,1.6715,1.6625,2.0425,1.9375,1.4035,1.047,0.4365,-1.1995,-0.4915
-0.0855,-1.8545,-1.769,0.9695,0.842,-1.812,1.7295,1.7985,2.234,2.109,1.508,1.102,0.5085,-1.1835,-0.5605
-0.0575,-1.83,-1.7725,0.9435,0.8575,-1.8015,1.7915,1.939,2.4395,2.2945,1.6115,1.15,0.5725,-1.1605,-0.6335
-0.0285,-1.799,-1.771,0.9135,0.871,-1.7855,1.857,2.0825,2.6485,2.4795,1.7105,1.196,0.6315,-1.1305,-0.7035
0.003,-1.7875,-1.7905,0.892,0.897,-1.7895,1.9175,2.232,2.86,2.653,1.7975,1.2315,0.6875,-1.133,-0.7725
0.046,-1.7635,-1.8095,0.8585,0.928,-1.7865,1.923,2.3325,3.034,2.8105,1.8875,1.2755,0.751,-1.1255,-0.817
0.078,-1.713,-1.791,0.8175,0.9345,-1.7525,1.8945,2.3895,3.169,2.946,1.973,1.3315,0.8085,-1.079,-0.8495
0.1015,-1.6645,-1.766,0.7815,0.9335,-1.7155,1.8535,2.4105,3.269,3.0575,2.0485,1.378,0.8575,-1.0365,-0.8735
0.112,-1.613,-1.7255,0.75,0.9185,-1.6695,1.7855,2.3485,3.2735,3.102,2.099,1.419,0.8915,-0.985,-0.8665
0.113,-1.5535,-1.6665,0.72,0.8895,-1.61,1.6695,2.197,3.1885,3.0775,2.122,1.4555,0.905,-0.9205,-0.8315
0.1025,-1.51,-1.612,0.7035,0.857,-1.5615,1.5355,1.9985,3.044,2.9865,2.102,1.4695,0.891,-0.8625,-0.7705
0.0765,-1.4845,-1.561,0.704,0.8185,-1.523,1.4035,1.769,2.8435,2.832,2.037,1.461,0.8455,-0.822,-0.698
0.041,-1.489,-1.53,0.7235,0.7855,-1.5095,1.293,1.5545,2.6285,2.642,1.941,1.428,0.778,-0.813,-0.6215
0.0075,-1.5335,-1.541,0.7625,0.7745,-1.5375,1.2115,1.382,2.4185,2.429,1.82,1.378,0.703,-0.8385,-0.529
-0.0245,-1.5625,-1.538,0.7935,0.7565,-1.5505,1.0975,1.1805,2.1735,2.2075,1.704,1.3345,0.635,-0.8525,-0.4275
-0.064,-1.574,-1.51,0.819,0.723,-1.5425,0.988,0.9885,1.9155,1.9835,1.5945,1.2955,0.562,-0.8455,-0.3275
-0.0965,-1.5665,-1.47,0.8315,0.6865,-1.5185,0.8775,0.8105,1.66,1.7705,1.497,1.262,0.4945,-0.821,-0.2365
-0.1335,-1.553,-1.419,0.843,0.6425,-1.4865,0.7525,0.609,1.407,1.583,1.4155,1.2395,0.4415,-0.7825,-0.1505
-0.152,-1.55,-1.398,0.8505,0.623,-1.474,0.6525,0.4535,1.207,1.4295,1.3445,1.2195,0.3965,-0.7665,-0.0575
-0.162,-1.5565,-1.395,0.859,0.6165,-1.476,0.5645,0.3185,1.009,1.2705,1.2695,1.1945,0.356,-0.781,0.033
-0.1815,-1.5835,-1.402,0.882,0.61,-1.493,0.4955,0.184,0.7945,1.101,1.189,1.168,0.3175,-0.8045,0.1195
-0.1945,-1.602,-1.4075,0.898,0.607,-1.505,0.4505,0.073,0.615,0.963,1.124,1.141,0.2845,-0.8235,0.196
-0.211,-1.618,-1.407,0.9145,0.598,-1.513,0.395,-0.052,0.428,0.8275,1.062,1.1135,0.251,-0.848,0.258
-0.2285,-1.635,-1.4065,0.9315,0.589,-1.521,0.3385,-0.164,0.272,0.7125,1.009,1.092,0.224,-0.8595,0.3115
-0.235,-1.6375,-1.4025,0.936,0.584,-1.5205,0.2915,-0.2235,0.2065,0.661,0.981,1.082,0.2105,-0.859,0.347
-0.246,-1.6325,-1.3865,0.939,0.57,-1.5095,0.2805,-0.2215,0.2105,0.6625,0.9725,1.0785,0.205,-0.8525,0.3525
-0.26,-1.631,-1.371,0.945,0.5555,-1.5015,0.2825,-0.198,0.2405,0.6795,0.9715,1.0755,0.2025,-0.845,0.3515
-0.2655,-1.639,-1.374,0.952,0.5545,-1.5065,0.2685,-0.179,0.27,0.6895,0.9685,1.073,0.2025,-0.852,0.357
-0.269,-1.64,-1.3705,0.954,0.551,-1.5055,0.2835,-0.1315,0.318,0.7105,0.97,1.071,0.205,-0.8455,0.362
-0.261,-1.6445,-1.3835,0.9525,0.561,-1.514,0.293,-0.0885,0.3545,0.72,0.9645,1.066,0.208,-0.857,0.371
-0.2525,-1.669,-1.4165,0.9605,0.582,-1.543,0.308,-0.0515,0.3805,0.7135,0.9435,1.0495,0.2085,-0.8935,0.3795
-0.254,-1.6935,-1.4395,0.9735,0.5925,-1.5665,0.35,0.005,0.416,0.714,0.9275,1.033,0.206,-0.9205,0.3865
-0.2555,-1.721,-1.4655,0.988,0.605,-1.5935,0.392,0.0585,0.453,0.723,0.9155,1.0175,0.2045,-0.9535,0.3885
-0.26,-1.7435,-1.4835,1.0015,0.6115,-1.6135,0.424,0.096,0.479,0.7275,0.902,1.0025,0.202,-0.974,0.388
-0.278,-1.7585,-1.4805,1.018,0.6015,-1.62,0.4505,0.1205,0.4955,0.7295,0.8875,0.985,0.193,-0.983,0.3835
-0.2855,-1.775,-1.4895,1.03,0.602,-1.6325,0.4815,0.1475,0.517,0.739,0.8755,0.9695,0.187,-0.998,0.3715
-0.2865,-1.7755,-1.4895,1.0305,0.6015,-1.6325,0.5005,0.1685,0.531,0.7435,0.865,0.9585,0.182,-1.0035,0.3635
-0.285,-1.757,-1.4725,1.021,0.594,-1.615,0.5045,0.176,0.536,0.747,0.862,0.954,0.176,-0.9895,0.3565
-0.2765,-1.7445,-1.4675,1.0105,0.5955,-1.606,0.5165,0.191,0.5495,0.7575,0.865,0.954,0.175,-0.9785,0.346
-0.2735,-1.7375,-1.464,1.0055,0.595,-1.601,0.5395,0.2125,0.568,0.768,0.865,0.9535,0.175,-0.9765,0.3315
-0.2715,-1.7375,-1.4655,1.004,0.597,-1.602,0.564,0.241,0.593,0.7845,0.8665,0.951,0.175,-0.976,0.3085
-0.275,-1.7525,-1.478,1.0135,0.6015,-1.6155,0.6165,0.2975,0.6385,0.812,0.867,0.943,0.1715,-0.9875,0.2825
-0.273,-1.773,-1.5,1.0225,0.6135,-1.6365,0.6865,0.369,0.692,0.8395,0.864,0.9305,0.171,-1.009,0.261
-0.2765,-1.79,-1.5135,1.033,0.6185,-1.652,0.7385,0.4225,0.731,0.854,0.856,0.914,0.1635,-1.023,0.235
-0.2805,-1.7985,-1.518,1.0395,0.6185,-1.6585,0.78,0.4615,0.7605,0.868,0.8535,0.903,0.155,-1.035,0.206
-0.2845,-1.8025,-1.518,1.043,0.617,-1.6605,0.819,0.4955,0.7875,0.884,0.853,0.8935,0.1475,-1.0355,0.182
-0.2955,-1.804,-1.5085,1.0495,0.6065,-1.6565,0.849,0.525,0.81,0.8975,0.8515,0.885,0.14,-1.0285,0.1555
-0.2985,-1.8065,-1.5075,1.0525,0.604,-1.6575,0.875,0.55,0.8325,0.913,0.8555,0.882,0.14,-1.0325,0.143
-0.305,-1.8125,-1.507,1.059,0.6005,-1.66,0.899,0.5755,0.855,0.9265,0.859,0.878,0.1355,-1.0255,0.1395
-0.3105,-1.829,-1.5185,1.0695,0.604,-1.674,0.9255,0.6055,0.879,0.9395,0.857,0.8685,0.125,-1.0395,0.122
-0.3145,-1.848,-1.5325,1.0815,0.6085,-1.6905,0.9435,0.6285,0.8945,0.946,0.848,0.8525,0.1135,-1.062,0.105
-0.32,-1.856,-1.535,1.0885,0.607,-1.696,0.956,0.6415,0.9035,0.9465,0.84,0.8385,0.102,-1.0645,0.097
-0.3225,-1.8615,-1.5385,1.092,0.6075,-1.7005,0.97,0.653,0.9125,0.95,0.836,0.831,0.0915,-1.076,0.0825
-0.325,-1.875,-1.549,1.1,0.612,-1.712,0.9805,0.6685,0.9235,0.955,0.832,0.8235,0.08,-1.0945,0.0675
-0.327,-1.8885,-1.5615,1.108,0.617,-1.7255,0.9895,0.68,0.9335,0.957,0.825,0.8115,0.072,-1.1125,0.0625
-0.3305,-1.8985,-1.568,1.1145,0.6185,-1.7335,0.997,0.689,0.9405,0.9565,0.819,0.803,0.0655,-1.122,0.06
-0.3385,-1.906,-1.567,1.122,0.614,-1.7365,1.0035,0.695,0.945,0.955,0.8145,0.7955,0.0585,-1.1245,0.054
-0.3415,-1.916,-1.5735,1.1285,0.616,-1.745,1.0095,0.7005,0.9465,0.957,0.81,0.79,0.053,-1.134,0.0525
-0.342,-1.922,-1.5795,1.132,0.6185,-1.751,1.013,0.705,0.9465,0.9575,0.8075,0.787,0.047,-1.1435,0.046
-0.3425,-1.9175,-1.574,1.13,0.6155,-1.746,1.0175,0.708,0.9495,0.9585,0.8055,0.784,0.0445,-1.1445,0.0365
-0.344,-1.9255,-1.5805,1.1345,0.618,-1.7535,1.022,0.7135,0.952,0.9605,0.8045,0.7835,0.0455,-1.1495,0.0365
-0.3535,-1.932,-1.5785,1.1425,0.6125,-1.7555,1.0245,0.715,0.9515,0.9575,0.8035,0.783,0.043,-1.141,0.0405
-0.352,-1.927,-1.5745,1.1395,0.611,-1.751,1.0285,0.7155,0.9515,0.955,0.8015,0.7825,0.041,-1.134,0.046
-0.3525,-1.928,-1.575,1.14,0.611,-1.7515,1.026,0.713,0.9475,0.9515,0.798,0.779,0.0395,-1.1415,0.0455
-0.3545,-1.9315,-1.577,1.143,0.611,-1.7545,1.0245,0.7125,0.9455,0.9495,0.7955,0.778,0.038,-1.1465,0.0445
-0.3525,-1.9295,-1.5765,1.141,0.612,-1.7535,1.026,0.7135,0.947,0.9495,0.7965,0.7775,0.037,-1.147,0.0435
-0.352,-1.9255,-1.573,1.139,0.61,-1.7495,1.029,0.7155,0.95,0.9515,0.801,0.7785,0.037,-1.141,0.045
-0.349,-1.924,-1.5745,1.1365,0.6125,-1.7495,1.029,0.7195,0.9525,0.9525,0.802,0.782,0.0385,-1.1415,0.044
-0.349,-1.9235,-1.5745,1.1365,0.6125,-1.749,1.0285,0.7175,0.9515,0.952,0.7985,0.779,0.038,-1.145,0.0395
-0.349,-1.927,-1.5775,1.138,0.614,-1.7525,1.028,0.716,0.9515,0.951,0.7985,0.778,0.0385,-1.15,0.0415
-0.3515,-1.931,-1.579,1.141,0.6135,-1.755,1.027,0.7165,0.952,0.9485,0.7985,0.7775,0.0395,-1.1535,0.0395
-0.3485,-1.932,-1.583,1.14,0.617,-1.7575,1.0275,0.7185,0.953,0.9515,0.799,0.7775,0.04,-1.1515,0.036
-0.3465,-1.931,-1.5845,1.1385,0.619,-1.758,1.029,0.7215,0.9545,0.9545,0.801,0.779,0.0415,-1.1505,0.0335
-0.3455,-1.932,-1.586,1.1385,0.62,-1.759,1.03,0.723,0.956,0.954,0.799,0.7755,0.04,-1.155,0.0325
-0.3445,-1.9315,-1.5865,1.138,0.6205,-1.759,1.029,0.725,0.954,0.953,0.796,0.7745,0.0385,-1.16,0.0325
-0.35,-1.9285,-1.578,1.1395,0.614,-1.7535,1.03,0.726,0.9545,0.9515,0.7975,0.777,0.0405,-1.156,0.032
-0.355,-1.924,-1.569,1.1395,0.607,-1.747,1.0295,0.7255,0.955,0.9495,0.7945,0.7765,0.041,-1.149,0.035
-0.357,-1.9205,-1.563,1.1385,0.6025,-1.742,1.0295,0.727,0.9545,0.9475,0.794,0.7755,0.04,-1.144,0.0335
-0.354,-1.9235,-1.5695,1.1385,0.6075,-1.747,1.03,0.7285,0.955,0.947,0.7925,0.7725,0.038,-1.151,0.0305
-0.354,-1.922,-1.568,1.138,0.607,-1.745,1.03,0.7275,0.956,0.947,0.79,0.7725,0.038,-1.1525,0.0285
-0.356,-1.926,-1.57,1.141,0.6065,-1.748,1.0335,0.7315,0.9575,0.9495,0.789,0.772,0.038,-1.1555,0.024
-0.3565,-1.9345,-1.5775,1.1455,0.61,-1.756,1.0365,0.737,0.96,0.9515,0.787,0.772,0.036,-1.16,0.0265
-0.356,-1.9355,-1.579,1.146,0.6115,-1.7575,1.04,0.739,0.9645,0.9545,0.791,0.775,0.0345,-1.158,0.0295
-0.3535,-1.9375,-1.5835,1.1455,0.615,-1.761,1.041,0.74,0.9665,0.955,0.791,0.7745,0.034,-1.1595,0.032
-0.352,-1.9305,-1.5785,1.141,0.613,-1.755,1.04,0.7395,0.968,0.954,0.7905,0.775,0.0335,-1.149,0.0295
-0.3515,-1.927,-1.575,1.139,0.6115,-1.751,1.0405,0.739,0.9675,0.952,0.79,0.774,0.034,-1.1455,0.033
-0.356,-1.9315,-1.575,1.1435,0.6095,-1.7535,1.04,0.741,0.9675,0.9525,0.789,0.772,0.0335,-1.1515,0.032
-0.354,-1.9345,-1.58,1.144,0.613,-1.7575,1.0415,0.743,0.9685,0.9555,0.7915,0.7725,0.034,-1.161,0.021
-0.346,-1.928,-1.5815,1.137,0.6175,-1.755,1.0425,0.7445,0.9705,0.9555,0.794,0.774,0.0345,-1.1515,0.0265
-0.3395,-1.9185,-1.5785,1.129,0.6195,-1.749,1.0445,0.747,0.975,0.957,0.795,0.774,0.033,-1.1505,0.023
-0.336,-1.9195,-1.583,1.128,0.623,-1.7515,1.0455,0.749,0.9765,0.9585,0.794,0.7735,0.034,-1.164,0.014
-0.34,-1.9245,-1.584,1.1325,0.622,-1.7545,1.046,0.749,0.977,0.9585,0.792,0.772,0.0355,-1.1625,0.0145
-0.341,-1.928,-1.5865,1.1345,0.6225,-1.7575,1.0465,0.749,0.979,0.958,0.79,0.7685,0.033,-1.157,0.0225
-0.3405,-1.9275,-1.5865,1.134,0.6225,-1.757,1.0475,0.751,0.98,0.958,0.7915,0.768,0.033,-1.155,0.027
-0.3395,-1.919,-1.579,1.1295,0.6195,-1.7495,1.0475,0.7515,0.981,0.96,0.795,0.772,0.038,-1.151,0.026
-0.339,-1.9185,-1.579,1.1285,0.6195,-1.749,1.047,0.7545,0.9825,0.963,0.7965,0.7755,0.0405,-1.1455,0.0305
-0.3445,-1.9255,-1.581,1.135,0.618,-1.7535,1.046,0.7535,0.982,0.961,0.7935,0.7715,0.0395,-1.1485,0.0255
-0.346,-1.93,-1.5835,1.138,0.6185,-1.757,1.046,0.7515,0.9835,0.96,0.792,0.7685,0.039,-1.152,0.0215
-0.342,-1.931,-1.589,1.1365,0.623,-1.7605,1.048,0.7545,0.986,0.964,0.793,0.771,0.0415,-1.152,0.023
-0.341,-1.9275,-1.586,1.1345,0.6225,-1.757,1.048,0.756,0.988,0.965,0.7935,0.7735,0.043,-1.1465,0.0295
-0.3435,-1.9275,-1.5835,1.1355,0.6195,-1.756,1.0505,0.7565,0.9905,0.966,0.7945,0.773,0.042,-1.144,0.0355
-0.347,-1.9285,-1.581,1.138,0.617,-1.755,1.054,0.7575,0.9945,0.9705,0.796,0.772,0.0405,-1.142,0.0315
-0.35,-1.9305,-1.5805,1.14,0.6155,-1.7555,1.055,0.76,0.9925,0.97,0.7955,0.77,0.0395,-1.1505,0.0235
-0.348,-1.932,-1.5835,1.14,0.618,-1.758,1.055,0.7605,0.991,0.9685,0.7935,0.7695,0.041,-1.156,0.022
-0.347,-1.932,-1.5845,1.1395,0.6185,-1.7585,1.054,0.7605,0.993,0.9695,0.796,0.7725,0.0405,-1.1505,0.022
-0.3455,-1.935,-1.589,1.14,0.6215,-1.762,1.055,0.762,0.993,0.971,0.797,0.7695,0.038,-1.1565,0.0185
-0.343,-1.9295,-1.586,1.1365,0.621,-1.758,1.054,0.7625,0.9965,0.9745,0.7975,0.767,0.0375,-1.1495,0.02
-0.3435,-1.9235,-1.579,1.1335,0.6175,-1.7515,1.0545,0.766,1.001,0.982,0.8015,0.768,0.039,-1.1435,0.015
-0.3435,-1.924,-1.58,1.134,0.618,-1.7525,1.056,0.7685,1.0055,0.984,0.804,0.769,0.04,-1.144,0.014
-0.3505,-1.93,-1.579,1.14,0.614,-1.7545,1.0545,0.767,1.005,0.9815,0.8005,0.7675,0.04,-1.137,0.02
-0.352,-1.9365,-1.5845,1.144,0.616,-1.761,1.0545,0.768,1.005,0.9815,0.797,0.7645,0.0405,-1.146,0.02
-0.3485,-1.9365,-1.5875,1.1425,0.6195,-1.7625,1.056,0.771,1.007,0.978,0.7975,0.762,0.0385,-1.1515,0.0145
-0.3445,-1.932,-1.587,1.138,0.621,-1.76,1.058,0.773,1.0065,0.9765,0.796,0.7615,0.036,-1.1495,0.007
-0.344,-1.929,-1.5845,1.1365,0.62,-1.757,1.06,0.7755,1.0075,0.975,0.793,0.763,0.0365,-1.1475,0.0075
-0.3495,-1.9295,-1.58,1.1395,0.615,-1.755,1.0595,0.7755,1.007,0.973,0.793,0.7635,0.0355,-1.143,0.015
-0.3495,-1.931,-1.581,1.14,0.6155,-1.7565,1.06,0.7785,1.0075,0.975,0.792,0.7635,0.036,-1.1405,0.0195
-0.3495,-1.9255,-1.576,1.1375,0.613,-1.751,1.06,0.7785,1.0085,0.9745,0.7905,0.7615,0.0385,-1.139,0.017
-0.343,-1.9175,-1.574,1.13,0.6155,-1.746,1.0585,0.7765,1.0095,0.976,0.7915,0.76,0.0395,-1.145,0.012
-0.3385,-1.9175,-1.578,1.128,0.6195,-1.748,1.065,0.7825,1.0165,0.9805,0.796,0.765,0.0405,-1.1435,0.0085
-0.3395,-1.9155,-1.5755,1.1275,0.618,-1.746,1.0685,0.785,1.019,0.9815,0.798,0.767,0.0395,-1.1365,0.011
-0.3385,-1.92,-1.5805,1.1295,0.6205,-1.7505,1.068,0.7855,1.018,0.98,0.7945,0.7645,0.041,-1.149,0.006
-0.3445,-1.928,-1.583,1.1365,0.619,-1.756,1.07,0.785,1.0165,0.981,0.794,0.763,0.041,-1.157,-0.0025
-0.347,-1.9255,-1.578,1.1365,0.6155,-1.752,1.0695,0.786,1.017,0.9825,0.796,0.7655,0.0405,-1.1465,0.003
-0.3465,-1.929,-1.582,1.138,0.6175,-1.756,1.0735,0.7885,1.0225,0.986,0.799,0.768,0.0405,-1.1495,0.005
-0.346,-1.93,-1.5835,1.138,0.6185,-1.757,1.075,0.7905,1.0255,0.9925,0.8015,0.7675,0.0425,-1.153,-0.0025
-0.34,-1.918,-1.5775,1.1295,0.618,-1.748,1.0735,0.7945,1.0305,0.996,0.8035,0.769,0.045,-1.144,-0.005
-0.3395,-1.915,-1.575,1.127,0.6175,-1.7455,1.0755,0.793,1.03,0.9925,0.8025,0.7685,0.045,-1.1405,-0.002
-0.3435,-1.9145,-1.5705,1.129,0.613,-1.7425,1.0775,0.794,1.0275,0.9895,0.802,0.769,0.0435,-1.1335,0.0015
-0.343,-1.91,-1.566,1.1265,0.611,-1.738,1.08,0.797,1.031,0.993,0.805,0.771,0.0425,-1.126,0.0025
-0.3415,-1.9145,-1.572,1.128,0.6145,-1.7435,1.081,0.801,1.034,0.9965,0.8065,0.77,0.0425,-1.133,-0.002
-0.347,-1.9235,-1.576,1.135,0.6145,-1.75,1.078,0.802,1.0335,0.9985,0.8055,0.7685,0.0415,-1.142,-0.002
-0.3485,-1.9265,-1.5775,1.1375,0.6145,-1.7525,1.0815,0.8035,1.035,0.9995,0.806,0.769,0.041,-1.1455,0.0015
-0.344,-1.9225,-1.578,1.133,0.6165,-1.7505,1.0875,0.809,1.038,0.998,0.8055,0.7685,0.041,-1.1435,-0.0035
-0.3385,-1.9175,-1.578,1.128,0.6195,-1.748,1.09,0.812,1.041,1.0005,0.8085,0.7695,0.042,-1.144,-0.0075
-0.3405,-1.9165,-1.5755,1.129,0.617,-1.7465,1.091,0.8135,1.0425,1.0015,0.809,0.7705,0.043,-1.1455,-0.0065
-0.3425,-1.9185,-1.575,1.1305,0.616,-1.747,1.089,0.8135,1.042,0.9995,0.804,0.7675,0.044,-1.152,-0.009
-0.345,-1.9165,-1.571,1.131,0.6125,-1.744,1.09,0.815,1.045,1.0,0.8045,0.769,0.044,-1.144,-0.01
-0.3465,-1.911,-1.564,1.1285,0.6085,-1.7375,1.0925,0.819,1.048,1.002,0.807,0.773,0.0435,-1.129,-0.008
-0.3435,-1.9085,-1.564,1.126,0.61,-1.7365,1.095,0.8215,1.0495,1.004,0.8085,0.7735,0.044,-1.13,-0.011
-0.3465,-1.913,-1.566,1.1295,0.6095,-1.7395,1.0945,0.823,1.051,1.004,0.8075,0.773,0.0445,-1.134,-0.015
-0.345,-1.917,-1.5715,1.1315,0.613,-1.7445,1.0955,0.8235,1.052,1.0045,0.8065,0.769,0.042,-1.1395,-0.0165
-0.348,-1.9215,-1.573,1.135,0.612,-1.7475,1.1005,0.8275,1.0545,1.008,0.808,0.7705,0.042,-1.136,-0.0165
-0.346,-1.9165,-1.57,1.1315,0.6115,-1.7435,1.1045,0.833,1.06,1.014,0.8105,0.775,0.046,-1.134,-0.018
-0.339,-1.908,-1.568,1.1235,0.614,-1.7385,1.1075,0.8365,1.065,1.0185,0.8145,0.777,0.047,-1.1355,-0.0185
-0.3375,-1.9065,-1.568,1.122,0.615,-1.7375,1.111,0.8395,1.07,1.022,0.817,0.7805,0.0475,-1.1305,-0.0155
-0.3385,-1.9085,-1.5695,1.1235,0.615,-1.739,1.1135,0.8425,1.0745,1.0245,0.8175,0.7805,0.0485,-1.125,-0.0135
-0.3385,-1.9075,-1.5685,1.123,0.6145,-1.738,1.1165,0.8445,1.0775,1.026,0.8185,0.78,0.0485,-1.1245,-0.0165
-0.34,-1.903,-1.5625,1.1215,0.611,-1.733,1.118,0.8435,1.077,1.0255,0.8195,0.7785,0.05,-1.122,-0.017
-0.341,-1.909,-1.567,1.125,0.6125,-1.738,1.1165,0.845,1.0775,1.0245,0.82,0.779,0.0535,-1.1285,-0.0185
-0.3385,-1.911,-1.5715,1.125,0.6165,-1.7415,1.1195,0.8495,1.081,1.027,0.82,0.7785,0.0535,-1.133,-0.0225
-0.3385,-1.9055,-1.5665,1.122,0.6135,-1.736,1.122,0.8505,1.0835,1.0285,0.8225,0.7785,0.052,-1.129,-0.0235
-0.3335,-1.904,-1.57,1.1185,0.618,-1.737,1.1235,0.8545,1.085,1.033,0.8255,0.7805,0.0525,-1.133,-0.024
-0.3295,-1.9015,-1.5715,1.1155,0.621,-1.737,1.126,0.857,1.088,1.038,0.8255,0.7815,0.0555,-1.1325,-0.025
-0.332,-1.905,-1.5725,1.1185,0.62,-1.739,1.1295,0.86,1.093,1.043,0.8275,0.7835,0.056,-1.136,-0.0315
-0.336,-1.911,-1.5745,1.1235,0.619,-1.743,1.129,0.863,1.097,1.0485,0.831,0.782,0.0565,-1.1435,-0.0375
-0.341,-1.91,-1.568,1.1255,0.6135,-1.739,1.1295,0.8655,1.1025,1.053,0.8325,0.783,0.0585,-1.136,-0.0365
-0.342,-1.907,-1.5645,1.1245,0.6105,-1.736,1.1325,0.867,1.103,1.0515,0.831,0.783,0.0575,-1.1335,-0.035
-0.343,-1.9085,-1.565,1.1255,0.611,-1.737,1.1315,0.866,1.101,1.045,0.8275,0.781,0.056,-1.1335,-0.0325
-0.3465,-1.913,-1.566,1.13,0.6095,-1.7395,1.1345,0.8705,1.1035,1.045,0.8265,0.782,0.054,-1.124,-0.0275
-0.3395,-1.9125,-1.572,1.126,0.6155,-1.7425,1.1385,0.876,1.1085,1.047,0.826,0.7835,0.055,-1.1315,-0.033
-0.334,-1.912,-1.5775,1.123,0.6215,-1.745,1.142,0.88,1.113,1.0475,0.827,0.7855,0.055,-1.1445,-0.0405
-0.337,-1.9135,-1.576,1.1255,0.6195,-1.745,1.1465,0.8845,1.1175,1.0515,0.8295,0.784,0.053,-1.1425,-0.039
-0.335,-1.91,-1.5745,1.1225,0.6195,-1.7425,1.1485,0.887,1.1205,1.0545,0.8285,0.785,0.0535,-1.1395,-0.041
-0.334,-1.912,-1.5775,1.123,0.6215,-1.745,1.152,0.891,1.1225,1.054,0.8275,0.787,0.0545,-1.1395,-0.0475
-0.334,-1.915,-1.5805,1.1245,0.623,-1.748,1.1525,0.8925,1.125,1.0525,0.8275,0.783,0.0545,-1.14,-0.054
-0.337,-1.9135,-1.5765,1.1255,0.6195,-1.7455,1.1525,0.8935,1.128,1.0525,0.8275,0.7805,0.055,-1.1375,-0.054
-0.329,-1.9145,-1.585,1.122,0.628,-1.75,1.157,0.8975,1.135,1.059,0.832,0.7825,0.0565,-1.142,-0.0465
-0.3315,-1.915,-1.583,1.1235,0.6255,-1.7495,1.1555,0.8985,1.137,1.0605,0.831,0.781,0.056,-1.14,-0.0385
-0.338,-1.9135,-1.575,1.126,0.618,-1.7445,1.158,0.901,1.1385,1.062,0.8325,0.781,0.056,-1.13,-0.0395
-0.3365,-1.911,-1.5735,1.1235,0.6185,-1.7425,1.1635,0.9035,1.1425,1.0665,0.8355,0.7825,0.0565,-1.1275,-0.0515
-0.3405,-1.908,-1.567,1.1245,0.613,-1.738,1.166,0.9065,1.1425,1.065,0.8325,0.78,0.056,-1.1255,-0.056
-0.3345,-1.9085,-1.5735,1.1215,0.619,-1.741,1.171,0.912,1.1485,1.071,0.834,0.782,0.055,-1.1295,-0.0505
-0.332,-1.911,-1.5785,1.1215,0.623,-1.745,1.172,0.9145,1.153,1.073,0.836,0.784,0.055,-1.133,-0.051
-0.3355,-1.915,-1.579,1.125,0.6215,-1.747,1.173,0.915,1.155,1.0745,0.8365,0.7835,0.057,-1.134,-0.0535
-0.34,-1.9245,-1.5835,1.132,0.6215,-1.754,1.1765,0.9195,1.157,1.0765,0.838,0.7855,0.06,-1.138,-0.051
-0.344,-1.9265,-1.582,1.135,0.619,-1.7545,1.178,0.9235,1.16,1.078,0.8395,0.787,0.062,-1.138,-0.047
-0.3425,-1.909,-1.5665,1.1255,0.6115,-1.738,1.18,0.927,1.168,1.0905,0.848,0.7895,0.0655,-1.125,-0.047
-0.3335,-1.893,-1.559,1.113,0.6125,-1.726,1.183,0.9305,1.1725,1.0945,0.8485,0.788,0.0675,-1.118,-0.049
-0.324,-1.8945,-1.5695,1.1095,0.6225,-1.7325,1.1855,0.933,1.1715,1.0905,0.8445,0.785,0.0655,-1.1255,-0.054
-0.32,-1.8985,-1.578,1.1095,0.6285,-1.7385,1.189,0.9375,1.172,1.0865,0.844,0.7865,0.066,-1.132,-0.06
-0.3235,-1.9025,-1.5785,1.113,0.627,-1.7405,1.1905,0.9395,1.174,1.084,0.84,0.7855,0.066,-1.135,-0.063
-0.3325,-1.9085,-1.575,1.1205,0.621,-1.742,1.193,0.945,1.1765,1.087,0.842,0.787,0.0655,-1.133,-0.0615
-0.3335,-1.9055,-1.5715,1.1195,0.619,-1.739,1.196,0.9495,1.1815,1.0905,0.8465,0.7895,0.0655,-1.127,-0.061
-0.3285,-1.9,-1.571,1.114,0.621,-1.7355,1.199,0.952,1.1875,1.0945,0.8495,0.7895,0.0665,-1.126,-0.064
-0.3165,-1.8985,-1.5815,1.1075,0.632,-1.74,1.207,0.9605,1.1965,1.1005,0.8525,0.793,0.0685,-1.129,-0.0665
-0.3125,-1.899,-1.586,1.106,0.6365,-1.743,1.208,0.9655,1.198,1.1025,0.85,0.7905,0.068,-1.13,-0.067
-0.31,-1.8995,-1.5885,1.1045,0.639,-1.7445,1.2115,0.9695,1.2,1.106,0.8525,0.792,0.069,-1.133,-0.07
-0.316,-1.9035,-1.587,1.1095,0.6355,-1.7455,1.217,0.9755,1.2045,1.1085,0.8545,0.7925,0.069,-1.13,-0.0755
-0.327,-1.911,-1.5835,1.119,0.628,-1.7475,1.2195,0.977,1.207,1.108,0.8525,0.7905,0.0715,-1.13,-0.077
-0.325,-1.911,-1.5855,1.118,0.63,-1.7485,1.2235,0.9825,1.213,1.111,0.855,0.791,0.074,-1.1325,-0.0785
-0.322,-1.9035,-1.581,1.113,0.629,-1.7425,1.2275,0.9895,1.2175,1.1135,0.8575,0.792,0.0745,-1.126,-0.079
-0.3245,-1.905,-1.5795,1.115,0.6275,-1.7425,1.2305,0.9915,1.223,1.1165,0.859,0.7935,0.077,-1.1265,-0.082
-0.3345,-1.9115,-1.5765,1.123,0.621,-1.744,1.232,0.9925,1.224,1.1165,0.8575,0.7905,0.075,-1.121,-0.085
-0.3295,-1.9105,-1.5805,1.12,0.625,-1.746,1.236,0.9965,1.227,1.118,0.8595,0.792,0.0775,-1.125,-0.082
-0.3215,-1.9095,-1.5875,1.1155,0.6325,-1.7485,1.24,1.0015,1.2315,1.1235,0.864,0.794,0.0815,-1.143,-0.0895
-0.3235,-1.9105,-1.5865,1.1165,0.6315,-1.7485,1.2455,1.0085,1.24,1.134,0.87,0.7975,0.0855,-1.1415,-0.092
-0.3245,-1.9105,-1.5855,1.1175,0.6305,-1.7485,1.245,1.013,1.2485,1.1425,0.8755,0.799,0.0905,-1.137,-0.089
-0.324,-1.911,-1.5865,1.1175,0.631,-1.749,1.248,1.016,1.25,1.1425,0.873,0.7965,0.087,-1.141,-0.091
-0.3245,-1.91,-1.585,1.117,0.63,-1.7475,1.257,1.023,1.256,1.143,0.872,0.7985,0.085,-1.132,-0.0895
-0.33,-1.911,-1.5805,1.1205,0.625,-1.746,1.2595,1.0255,1.2575,1.14,0.87,0.796,0.0835,-1.129,-0.0975
-0.3335,-1.9155,-1.582,1.1245,0.624,-1.749,1.265,1.03,1.2595,1.139,0.8665,0.794,0.0815,-1.1365,-0.1055
-0.3305,-1.9125,-1.5815,1.1215,0.625,-1.747,1.269,1.0345,1.2635,1.1435,0.8685,0.796,0.0835,-1.128,-0.103
-0.3325,-1.911,-1.578,1.1215,0.6225,-1.7445,1.273,1.039,1.2695,1.147,0.872,0.796,0.082,-1.1285,-0.104
-0.331,-1.91,-1.5785,1.1205,0.6235,-1.7445,1.2785,1.047,1.2785,1.1515,0.8755,0.7975,0.0845,-1.1315,-0.105
-0.325,-1.9095,-1.584,1.117,0.629,-1.7465,1.283,1.055,1.287,1.1605,0.8785,0.799,0.086,-1.132,-0.1095
-0.3285,-1.9135,-1.5845,1.121,0.628,-1.7495,1.2895,1.06,1.294,1.164,0.8805,0.799,0.085,-1.1345,-0.119
-0.324,-1.9155,-1.591,1.1195,0.6335,-1.7535,1.299,1.0685,1.302,1.1695,0.8855,0.8015,0.0845,-1.134,-0.125
-0.3255,-1.9205,-1.5945,1.123,0.6345,-1.758,1.306,1.0785,1.3115,1.1735,0.8885,0.8035,0.085,-1.13,-0.1195
-0.323,-1.9115,-1.588,1.1175,0.632,-1.75,1.3095,1.084,1.316,1.1775,0.891,0.8075,0.0895,-1.122,-0.1105
-0.314,-1.9065,-1.592,1.11,0.6385,-1.7495,1.3145,1.0915,1.321,1.186,0.8955,0.8105,0.092,-1.1235,-0.111
-0.318,-1.9095,-1.5905,1.114,0.636,-1.7505,1.319,1.096,1.3265,1.188,0.897,0.8105,0.093,-1.1255,-0.119
-0.3135,-1.9075,-1.5935,1.1105,0.64,-1.751,1.3245,1.103,1.335,1.196,0.901,0.811,0.0945,-1.1255,-0.1215
-0.3085,-1.912,-1.603,1.1105,0.647,-1.758,1.3315,1.1145,1.3455,1.2045,0.906,0.8145,0.098,-1.1335,-0.127
-0.3115,-1.9085,-1.5965,1.11,0.6425,-1.753,1.3355,1.119,1.349,1.2035,0.905,0.8125,0.098,-1.127,-0.1355
-0.3155,-1.907,-1.5905,1.111,0.6375,-1.749,1.339,1.123,1.35,1.2005,0.8995,0.8095,0.0975,-1.1215,-0.1355
-0.318,-1.908,-1.589,1.113,0.635,-1.7485,1.3445,1.1285,1.3555,1.2025,0.9015,0.8095,0.098,-1.127,-0.138
-0.3165,-1.907,-1.5895,1.1115,0.6365,-1.7485,1.347,1.1335,1.363,1.2075,0.906,0.8095,0.099,-1.128,-0.1385
-0.314,-1.9005,-1.586,1.107,0.6355,-1.7435,1.353,1.1415,1.3715,1.2125,0.909,0.811,0.0995,-1.12,-0.1405
-0.3145,-1.8965,-1.5815,1.1055,0.6335,-1.7395,1.3615,1.1505,1.3795,1.2195,0.912,0.813,0.0975,-1.1115,-0.1455
-0.3115,-1.904,-1.592,1.1075,0.64,-1.7485,1.3705,1.16,1.3885,1.2265,0.9145,0.816,0.0985,-1.122,-0.1485
-0.3055,-1.9065,-1.6005,1.106,0.647,-1.7535,1.379,1.171,1.397,1.234,0.9215,0.8205,0.1025,-1.1245,-0.151
-0.307,-1.91,-1.6025,1.1085,0.6475,-1.7565,1.3865,1.181,1.407,1.2425,0.9265,0.8235,0.107,-1.1255,-0.157
-0.305,-1.916,-1.6105,1.1105,0.6525,-1.7635,1.393,1.1905,1.4155,1.2495,0.9295,0.825,0.111,-1.137,-0.166
-0.3045,-1.917,-1.6125,1.1105,0.654,-1.765,1.398,1.1985,1.4225,1.2545,0.9325,0.8285,0.115,-1.139,-0.1695
-0.3045,-1.9185,-1.6135,1.1115,0.6545,-1.7665,1.406,1.207,1.431,1.2595,0.9325,0.83,0.114,-1.1335,-0.168
-0.304,-1.923,-1.6185,1.1135,0.6575,-1.771,1.4125,1.2165,1.4385,1.2635,0.935,0.829,0.1125,-1.135,-0.1655
-0.302,-1.9255,-1.623,1.114,0.66,-1.7745,1.419,1.2255,1.445,1.2675,0.938,0.829,0.116,-1.141,-0.168
-0.299,-1.915,-1.6155,1.107,0.658,-1.7655,1.427,1.234,1.454,1.2735,0.9415,0.8315,0.118,-1.1345,-0.1705
-0.3015,-1.903,-1.601,1.1025,0.6495,-1.7525,1.429,1.2385,1.461,1.279,0.9445,0.832,0.119,-1.1195,-0.172
-0.299,-1.903,-1.604,1.101,0.6525,-1.754,1.435,1.244,1.47,1.2855,0.946,0.832,0.1205,-1.1155,-0.1775
-0.2915,-1.905,-1.6135,1.098,0.661,-1.7595,1.44,1.2545,1.4815,1.295,0.9485,0.8345,0.1235,-1.124,-0.1815
-0.2885,-1.9085,-1.62,1.098,0.6655,-1.764,1.4485,1.2665,1.4935,1.3045,0.954,0.838,0.1275,-1.1325,-0.1835
-0.287,-1.911,-1.6235,1.0985,0.6685,-1.7675,1.46,1.276,1.5035,1.308,0.957,0.8385,0.128,-1.133,-0.187
-0.2885,-1.9125,-1.6245,1.1,0.668,-1.7685,1.4645,1.282,1.5065,1.3075,0.954,0.837,0.128,-1.1345,-0.192
-0.293,-1.9085,-1.6155,1.1005,0.661,-1.762,1.4705,1.289,1.5145,1.3105,0.9535,0.836,0.13,-1.1335,-0.1955
-0.296,-1.9,-1.6045,1.098,0.654,-1.7525,1.476,1.3015,1.5265,1.3165,0.955,0.8345,0.1295,-1.121,-0.2
-0.2955,-1.8985,-1.603,1.097,0.6535,-1.751,1.483,1.31,1.533,1.319,0.9545,0.832,0.1305,-1.1185,-0.206
-0.291,-1.898,-1.607,1.0945,0.658,-1.7525,1.4895,1.3185,1.543,1.328,0.9595,0.8345,0.131,-1.122,-0.2065
-0.2895,-1.905,-1.6155,1.0965,0.663,-1.7605,1.495,1.329,1.555,1.3375,0.964,0.836,0.132,-1.125,-0.2085
-0.2875,-1.9065,-1.619,1.097,0.666,-1.763,1.5025,1.34,1.5635,1.3445,0.968,0.836,0.1345,-1.1245,-0.213
-0.2855,-1.908,-1.6225,1.0965,0.6685,-1.7655,1.5085,1.3495,1.5725,1.3535,0.973,0.84,0.138,-1.127,-0.2185
-0.291,-1.916,-1.6255,1.1035,0.6675,-1.771,1.5145,1.357,1.5815,1.359,0.9735,0.8395,0.141,-1.1365,-0.228
-0.289,-1.9155,-1.6265,1.102,0.669,-1.771,1.5215,1.369,1.592,1.3655,0.9775,0.839,0.1425,-1.1385,-0.232
-0.286,-1.9075,-1.6215,1.0965,0.668,-1.765,1.5275,1.378,1.6035,1.3725,0.984,0.841,0.143,-1.131,-0.235
-0.2755,-1.898,-1.623,1.0865,0.674,-1.7605,1.538,1.39,1.6175,1.383,0.99,0.845,0.1425,-1.1275,-0.2395
-0.2685,-1.9055,-1.6365,1.0865,0.684,-1.7715,1.549,1.404,1.631,1.3895,0.9915,0.8475,0.143,-1.137,-0.2435
-0.272,-1.9115,-1.639,1.091,0.6835,-1.7755,1.5565,1.4135,1.6405,1.394,0.993,0.8485,0.145,-1.139,-0.2495
-0.271,-1.9105,-1.6385,1.0905,0.6835,-1.775,1.5645,1.425,1.6495,1.3985,0.995,0.8505,0.147,-1.1385,-0.256
-0.2765,-1.91,-1.6335,1.093,0.6785,-1.772,1.5675,1.431,1.6555,1.4,0.9935,0.8495,0.149,-1.135,-0.259
-0.278,-1.9075,-1.6295,1.0925,0.6755,-1.7685,1.572,1.4385,1.663,1.405,0.996,0.8485,0.1505,-1.1305,-0.2615
-0.275,-1.9035,-1.6285,1.089,0.677,-1.766,1.5795,1.4505,1.6715,1.4115,0.9995,0.8485,0.1515,-1.1275,-0.2655
-0.2705,-1.9005,-1.63,1.085,0.6795,-1.7655,1.5895,1.4615,1.6845,1.4205,1.005,0.8505,0.1495,-1.1215,-0.272
-0.266,-1.908,-1.642,1.0865,0.688,-1.775,1.599,1.474,1.6975,1.4285,1.01,0.8525,0.1535,-1.1305,-0.279
-0.2615,-1.911,-1.649,1.086,0.694,-1.78,1.6035,1.4855,1.707,1.436,1.0125,0.8535,0.1575,-1.137,-0.2815
-0.258,-1.9085,-1.65,1.083,0.696,-1.7795,1.6095,1.4975,1.7215,1.4465,1.0205,0.859,0.1615,-1.1345,-0.2795
-0.2565,-1.906,-1.6495,1.081,0.6965,-1.7775,1.6175,1.5075,1.7335,1.4555,1.0245,0.861,0.165,-1.1335,-0.281
-0.26,-1.9035,-1.6435,1.0815,0.6915,-1.7735,1.6215,1.514,1.7415,1.46,1.024,0.858,0.1655,-1.13,-0.2845
-0.2605,-1.9035,-1.6425,1.0815,0.691,-1.773,1.624,1.5215,1.7505,1.466,1.0275,0.86,0.17,-1.127,-0.286
-0.259,-1.9055,-1.646,1.082,0.6935,-1.776,1.628,1.5335,1.764,1.4815,1.036,0.864,0.1755,-1.123,-0.2905
-0.2615,-1.9045,-1.643,1.083,0.6905,-1.774,1.6365,1.546,1.7805,1.4995,1.0475,0.87,0.18,-1.1225,-0.2985
-0.255,-1.901,-1.646,1.0775,0.695,-1.7735,1.6445,1.56,1.7955,1.5125,1.054,0.873,0.1845,-1.127,-0.305
-0.258,-1.9055,-1.6475,1.0815,0.695,-1.777,1.65,1.569,1.8025,1.515,1.053,0.871,0.1835,-1.1255,-0.307
-0.2685,-1.9155,-1.6475,1.0915,0.6895,-1.782,1.6555,1.5735,1.802,1.5055,1.0445,0.866,0.1795,-1.1305,-0.313
-0.2615,-1.914,-1.6525,1.0875,0.6955,-1.7835,1.66,1.5835,1.8095,1.506,1.042,0.865,0.181,-1.1385,-0.32
-0.25,-1.906,-1.656,1.078,0.703,-1.7815,1.67,1.598,1.8245,1.5165,1.0475,0.869,0.183,-1.1415,-0.3305
-0.242,-1.909,-1.6665,1.075,0.7125,-1.788,1.6805,1.6115,1.8395,1.5265,1.0535,0.8725,0.1855,-1.1505,-0.3385
-0.237,-1.913,-1.676,1.0745,0.7195,-1.7945,1.6885,1.625,1.854,1.538,1.06,0.878,0.19,-1.15,-0.337
-0.2415,-1.92,-1.6785,1.0805,0.718,-1.7995,1.698,1.637,1.865,1.545,1.0635,0.8785,0.1915,-1.146,-0.3375
-0.245,-1.921,-1.676,1.0825,0.7155,-1.799,1.702,1.6435,1.8725,1.5495,1.066,0.8785,0.1945,-1.148,-0.339
-0.243,-1.9175,-1.6745,1.08,0.716,-1.796,1.703,1.65,1.878,1.553,1.066,0.8755,0.1955,-1.1505,-0.341
-0.2375,-1.9155,-1.678,1.076,0.7205,-1.797,1.709,1.656,1.885,1.5575,1.066,0.873,0.199,-1.154,-0.3455
-0.233,-1.9105,-1.6775,1.0715,0.722,-1.7945,1.7125,1.664,1.8935,1.5655,1.0685,0.8735,0.202,-1.149,-0.3525
-0.237,-1.9195,-1.682,1.078,0.7225,-1.801,1.7155,1.6725,1.9035,1.573,1.072,0.8745,0.203,-1.145,-0.352
-0.2345,-1.9125,-1.678,1.073,0.722,-1.7955,1.7225,1.6785,1.9155,1.5785,1.0765,0.877,0.2055,-1.1415,-0.3515
-0.229,-1.8965,-1.6675,1.0625,0.719,-1.782,1.7285,1.69,1.925,1.5845,1.082,0.881,0.2075,-1.1285,-0.352
-0.231,-1.898,-1.667,1.064,0.718,-1.7825,1.7375,1.7,1.9325,1.5905,1.085,0.883,0.206,-1.1225,-0.347
-0.224,-1.892,-1.6685,1.0575,0.722,-1.7805,1.7415,1.709,1.9415,1.597,1.088,0.884,0.209,-1.1275,-0.347
-0.2165,-1.8885,-1.672,1.0525,0.7275,-1.781,1.7425,1.7175,1.953,1.6045,1.093,0.8855,0.211,-1.1315,-0.352
-0.2165,-1.895,-1.6785,1.0555,0.731,-1.7875,1.748,1.7255,1.9635,1.612,1.096,0.8865,0.211,-1.1345,-0.3585
-0.2105,-1.894,-1.6835,1.052,0.736,-1.789,1.752,1.735,1.971,1.6165,1.0995,0.8905,0.2155,-1.136,-0.3595
-0.213,-1.895,-1.682,1.054,0.7345,-1.789,1.758,1.7425,1.9785,1.6195,1.1015,0.89,0.214,-1.1345,-0.3615
-0.2225,-1.904,-1.6815,1.063,0.7295,-1.793,1.7595,1.7465,1.9825,1.622,1.1015,0.887,0.212,-1.136,-0.366
-0.2335,-1.918,-1.6845,1.075,0.7255,-1.8015,1.7535,1.747,1.984,1.6215,1.097,0.8835,0.214,-1.1395,-0.366
-0.238,-1.9285,-1.6905,1.083,0.726,-1.8095,1.754,1.7515,1.9905,1.6245,1.0935,0.8795,0.2135,-1.1455,-0.376
-0.2345,-1.933,-1.6985,1.0835,0.732,-1.816,1.758,1.7575,1.998,1.6285,1.093,0.8785,0.2125,-1.151,-0.3855
-0.2255,-1.9375,-1.712,1.081,0.7435,-1.825,1.761,1.7645,2.004,1.6285,1.0945,0.8795,0.215,-1.161,-0.3865
-0.218,-1.9385,-1.7205,1.078,0.751,-1.8295,1.7675,1.7735,2.012,1.6335,1.101,0.8855,0.217,-1.1715,-0.392
-0.215,-1.9385,-1.7235,1.0765,0.754,-1.831,1.769,1.7775,2.017,1.6365,1.101,0.887,0.219,-1.1795,-0.3925
-0.2095,-1.9375,-1.728,1.0735,0.759,-1.833,1.764,1.7775,2.019,1.636,1.0985,0.8855,0.2225,-1.1825,-0.3895
-0.212,-1.9355,-1.723,1.0735,0.7555,-1.8295,1.762,1.7785,2.0205,1.6385,1.0985,0.8845,0.2215,-1.1725,-0.388
-0.2105,-1.929,-1.719,1.0695,0.7545,-1.8245,1.762,1.781,2.025,1.6445,1.1005,0.8845,0.2215,-1.1645,-0.388
-0.2065,-1.925,-1.7195,1.0655,0.7565,-1.8225,1.7595,1.7825,2.0295,1.6485,1.103,0.886,0.223,-1.163,-0.3905
-0.207,-1.932,-1.725,1.069,0.759,-1.829,1.7595,1.7845,2.0305,1.648,1.1045,0.8845,0.221,-1.1705,-0.3915
-0.204,-1.934,-1.73,1.0685,0.763,-1.832,1.758,1.784,2.0275,1.647,1.104,0.885,0.222,-1.1735,-0.392
-0.209,-1.93,-1.721,1.0695,0.756,-1.826,1.75,1.7805,2.0255,1.6495,1.1045,0.888,0.225,-1.161,-0.3825
-0.21,-1.934,-1.724,1.072,0.7565,-1.829,1.7435,1.778,2.029,1.657,1.109,0.888,0.226,-1.1655,-0.375
-0.2095,-1.935,-1.726,1.072,0.7585,-1.831,1.735,1.7745,2.0285,1.6625,1.11,0.887,0.229,-1.1735,-0.378
-0.2105,-1.935,-1.725,1.0725,0.757,-1.83,1.731,1.772,2.026,1.6595,1.1095,0.888,0.2295,-1.167,-0.378
-0.2095,-1.9425,-1.733,1.076,0.7615,-1.838,1.7295,1.7695,2.024,1.65,1.1045,0.8865,0.2265,-1.169,-0.3785
-0.2095,-1.943,-1.733,1.076,0.762,-1.838,1.7235,1.763,2.017,1.6405,1.097,0.8825,0.223,-1.177,-0.3815
-0.2085,-1.9425,-1.734,1.075,0.7625,-1.8385,1.7175,1.758,2.0115,1.632,1.0905,0.8815,0.2195,-1.1815,-0.38
-0.204,-1.9345,-1.7305,1.069,0.7635,-1.833,1.712,1.7545,2.01,1.633,1.0945,0.884,0.2205,-1.1735,-0.3685
-0.2055,-1.9285,-1.7235,1.0665,0.759,-1.826,1.7045,1.7475,2.006,1.6365,1.0985,0.8835,0.2195,-1.1685,-0.361
-0.218,-1.9435,-1.7255,1.0805,0.7535,-1.835,1.6925,1.7355,1.997,1.63,1.094,0.881,0.22,-1.1815,-0.364
-0.216,-1.953,-1.737,1.0845,0.7605,-1.8455,1.683,1.7265,1.988,1.626,1.09,0.879,0.22,-1.19,-0.3645
-0.2085,-1.9495,-1.741,1.0785,0.7665,-1.8455,1.68,1.7205,1.9825,1.62,1.0895,0.879,0.217,-1.1835,-0.3605
-0.2035,-1.946,-1.7425,1.0745,0.7695,-1.8445,1.673,1.7115,1.972,1.61,1.0855,0.879,0.2155,-1.1835,-0.359
-0.208,-1.95,-1.742,1.079,0.767,-1.846,1.66,1.698,1.9605,1.601,1.0785,0.875,0.2125,-1.1925,-0.3575
-0.216,-1.954,-1.738,1.0845,0.761,-1.846,1.648,1.6865,1.951,1.5945,1.0775,0.8735,0.2115,-1.1985,-0.3565
-0.22,-1.958,-1.738,1.0885,0.759,-1.8485,1.6345,1.672,1.9365,1.5885,1.0745,0.871,0.21,-1.1985,-0.3565
-0.2185,-1.958,-1.7395,1.088,0.7605,-1.8495,1.6215,1.655,1.9225,1.5805,1.071,0.8705,0.21,-1.201,-0.3505
-0.211,-1.9535,-1.742,1.082,0.7655,-1.848,1.611,1.642,1.911,1.575,1.0715,0.876,0.208,-1.198,-0.3385
-0.2135,-1.951,-1.7375,1.082,0.762,-1.8445,1.6,1.6285,1.8985,1.5675,1.068,0.8765,0.2055,-1.1825,-0.322
-0.209,-1.9485,-1.7395,1.0785,0.765,-1.8445,1.584,1.61,1.8795,1.5565,1.0635,0.875,0.2065,-1.184,-0.315
-0.213,-1.948,-1.735,1.0805,0.761,-1.8415,1.5695,1.5895,1.8595,1.5445,1.0575,0.873,0.204,-1.1935,-0.3095
-0.225,-1.95,-1.725,1.0875,0.75,-1.8375,1.556,1.571,1.8415,1.535,1.051,0.8675,0.1985,-1.1945,-0.303
-0.2255,-1.9445,-1.719,1.0845,0.747,-1.832,1.5425,1.5535,1.824,1.5255,1.048,0.8655,0.197,-1.191,-0.3005
-0.223,-1.9415,-1.718,1.0815,0.7475,-1.83,1.53,1.533,1.805,1.513,1.041,0.8635,0.196,-1.1935,-0.2945
-0.223,-1.9415,-1.7185,1.0815,0.748,-1.83,1.5155,1.514,1.7855,1.5015,1.0345,0.8625,0.1935,-1.1895,-0.2875
-0.226,-1.9365,-1.7105,1.081,0.7425,-1.824,1.5,1.4945,1.767,1.4905,1.0325,0.8635,0.192,-1.1825,-0.2745
-0.228,-1.9375,-1.7095,1.0825,0.741,-1.8235,1.4835,1.474,1.7475,1.479,1.0275,0.8635,0.1895,-1.1805,-0.2625
-0.2295,-1.942,-1.7125,1.0855,0.7415,-1.8275,1.471,1.4575,1.73,1.469,1.024,0.862,0.1865,-1.1855,-0.2555
-0.2365,-1.946,-1.7095,1.091,0.7365,-1.828,1.458,1.4375,1.711,1.4575,1.018,0.858,0.1855,-1.189,-0.25
-0.241,-1.942,-1.701,1.091,0.73,-1.8215,1.4425,1.417,1.691,1.4455,1.013,0.857,0.183,-1.183,-0.247
-0.24,-1.9435,-1.704,1.0915,0.732,-1.824,1.4305,1.401,1.673,1.4325,1.009,0.856,0.1795,-1.191,-0.2435
-0.2405,-1.943,-1.7025,1.0915,0.731,-1.823,1.419,1.3815,1.6515,1.417,1.002,0.855,0.1755,-1.188,-0.2385
-0.2335,-1.9395,-1.706,1.0865,0.736,-1.823,1.4085,1.3645,1.6335,1.407,0.9995,0.857,0.172,-1.182,-0.226
-0.2365,-1.9395,-1.703,1.0875,0.7335,-1.8215,1.3945,1.3435,1.614,1.3945,0.9935,0.854,0.169,-1.18,-0.2125
-0.2445,-1.929,-1.6845,1.0865,0.72,-1.807,1.376,1.3205,1.5915,1.3795,0.9855,0.8495,0.1665,-1.165,-0.2055
-0.245,-1.9265,-1.6815,1.0855,0.7185,-1.8045,1.363,1.302,1.573,1.369,0.9815,0.848,0.164,-1.1655,-0.2
-0.25,-1.937,-1.687,1.093,0.7185,-1.812,1.3515,1.284,1.554,1.3575,0.9775,0.8475,0.1615,-1.175,-0.1925
-0.248,-1.943,-1.695,1.095,0.7235,-1.819,1.3385,1.266,1.538,1.349,0.977,0.8485,0.1585,-1.179,-0.183
-0.245,-1.939,-1.694,1.0915,0.7245,-1.8165,1.3275,1.248,1.52,1.34,0.9745,0.8485,0.1555,-1.1805,-0.177
-0.248,-1.9305,-1.6825,1.089,0.7175,-1.8065,1.3145,1.229,1.499,1.3255,0.9695,0.8475,0.1525,-1.173,-0.1695
-0.257,-1.9265,-1.6695,1.0915,0.706,-1.798,1.2955,1.2045,1.4755,1.3095,0.9595,0.843,0.148,-1.169,-0.164
-0.263,-1.9225,-1.6595,1.0925,0.698,-1.7915,1.284,1.185,1.456,1.297,0.954,0.8425,0.146,-1.166,-0.157
-0.2675,-1.919,-1.6515,1.093,0.692,-1.785,1.273,1.1655,1.4385,1.2825,0.948,0.841,0.144,-1.1565,-0.147
-0.2735,-1.92,-1.6465,1.0965,0.6865,-1.7835,1.2615,1.146,1.42,1.2695,0.942,0.8395,0.141,-1.157,-0.145
-0.273,-1.9205,-1.6475,1.0965,0.6875,-1.7845,1.2555,1.1335,1.4075,1.2635,0.941,0.8435,0.1385,-1.1595,-0.137
-0.275,-1.921,-1.646,1.0975,0.6855,-1.7835,1.244,1.1175,1.3925,1.254,0.94,0.844,0.136,-1.1565,-0.123
-0.278,-1.925,-1.647,1.101,0.6845,-1.786,1.233,1.1015,1.375,1.2425,0.9365,0.845,0.1355,-1.1565,-0.118
-0.281,-1.9245,-1.6435,1.103,0.681,-1.7845,1.2215,1.084,1.357,1.2305,0.9305,0.842,0.132,-1.157,-0.114
-0.287,-1.9185,-1.6315,1.1025,0.672,-1.775,1.209,1.0645,1.3395,1.2185,0.9255,0.8365,0.126,-1.1465,-0.107
-0.287,-1.9125,-1.6255,1.0995,0.6695,-1.769,1.1985,1.0485,1.322,1.209,0.921,0.8335,0.123,-1.1365,-0.098
-0.2795,-1.9095,-1.6295,1.0945,0.675,-1.7695,1.1885,1.0345,1.3065,1.199,0.9165,0.8325,0.12,-1.1395,-0.092
-0.2835,-1.9125,-1.629,1.0975,0.673,-1.771,1.182,1.0195,1.2915,1.1885,0.912,0.8295,0.1155,-1.1465,-0.094
-0.2865,-1.915,-1.629,1.1005,0.671,-1.772,1.177,1.009,1.2805,1.1835,0.91,0.831,0.115,-1.155,-0.0925
-0.2855,-1.9125,-1.627,1.0985,0.6705,-1.77,1.1675,0.997,1.269,1.177,0.9105,0.835,0.1165,-1.151,-0.087
-0.285,-1.91,-1.6255,1.097,0.6705,-1.768,1.1575,0.9805,1.253,1.1665,0.9065,0.8295,0.115,-1.148,-0.0785
-0.2865,-1.9065,-1.6195,1.096,0.6665,-1.763,1.1505,0.9655,1.237,1.1545,0.8965,0.824,0.11,-1.1485,-0.0725
-0.296,-1.9005,-1.6045,1.098,0.654,-1.753,1.1415,0.9525,1.22,1.1435,0.891,0.822,0.1055,-1.1365,-0.07
-0.294,-1.9045,-1.61,1.099,0.658,-1.7575,1.135,0.9405,1.2085,1.134,0.8885,0.8225,0.104,-1.142,-0.0645
-0.289,-1.907,-1.618,1.0975,0.6645,-1.7625,1.129,0.9285,1.1945,1.1225,0.8815,0.821,0.101,-1.1525,-0.061
-0.2935,-1.9085,-1.6155,1.101,0.661,-1.762,1.1205,0.9165,1.1815,1.113,0.876,0.819,0.099,-1.1505,-0.058
-0.304,-1.913,-1.609,1.1085,0.6525,-1.7615,1.108,0.9015,1.169,1.1035,0.8705,0.817,0.0995,-1.151,-0.059
-0.3065,-1.9115,-1.6045,1.109,0.6485,-1.758,1.101,0.8895,1.1575,1.0975,0.867,0.8145,0.0995,-1.152,-0.0575
-0.312,-1.9075,-1.595,1.1095,0.6415,-1.7515,1.095,0.88,1.148,1.0915,0.865,0.814,0.096,-1.144,-0.043
-0.309,-1.8975,-1.5885,1.1035,0.6395,-1.7435,1.087,0.8685,1.1365,1.085,0.865,0.814,0.0945,-1.1365,-0.031
-0.3045,-1.8985,-1.5935,1.1015,0.6445,-1.7465,1.084,0.8605,1.1265,1.079,0.8635,0.8145,0.093,-1.137,-0.0295
-0.3105,-1.9035,-1.592,1.107,0.6405,-1.748,1.0765,0.8485,1.114,1.072,0.86,0.812,0.09,-1.137,-0.027
-0.313,-1.9,-1.587,1.1065,0.637,-1.744,1.0705,0.841,1.105,1.0705,0.861,0.8115,0.0895,-1.137,-0.0235
-0.3165,-1.9045,-1.587,1.1105,0.635,-1.746,1.065,0.834,1.0985,1.066,0.858,0.8095,0.087,-1.138,-0.0245
-0.3205,-1.9045,-1.583,1.1125,0.631,-1.744,1.0605,0.824,1.09,1.0595,0.855,0.8065,0.0855,-1.133,-0.0225
-0.3245,-1.904,-1.579,1.1145,0.627,-1.7415,1.058,0.8175,1.0805,1.0525,0.853,0.808,0.083,-1.1355,-0.02
-0.3235,-1.907,-1.583,1.1155,0.629,-1.7455,1.0535,0.81,1.072,1.046,0.8495,0.807,0.0795,-1.1395,-0.019
-0.3225,-1.903,-1.58,1.113,0.6285,-1.7415,1.05,0.805,1.0635,1.041,0.848,0.806,0.0775,-1.13,-0.013
-0.3175,-1.8995,-1.5815,1.109,0.6315,-1.7405,1.0485,0.801,1.059,1.0405,0.848,0.8055,0.077,-1.128,-0.0115
-0.3175,-1.8995,-1.5815,1.1085,0.6315,-1.7405,1.044,0.7955,1.056,1.0405,0.85,0.808,0.0785,-1.1275,-0.0115
-0.324,-1.9005,-1.576,1.1125,0.6255,-1.7385,1.039,0.788,1.0485,1.035,0.848,0.8065,0.077,-1.125,-0.0065
-0.319,-1.8975,-1.5775,1.108,0.629,-1.7375,1.0375,0.782,1.043,1.029,0.846,0.805,0.076,-1.127,0.0005
-0.3145,-1.891,-1.5765,1.103,0.631,-1.734,1.0355,0.7785,1.04,1.027,0.847,0.81,0.079,-1.129,0.0045
-0.3185,-1.891,-1.572,1.105,0.6265,-1.732,1.0345,0.774,1.035,1.025,0.845,0.8095,0.0745,-1.1305,0.0055
-0.3165,-1.8915,-1.5745,1.104,0.629,-1.7335,1.0305,0.7685,1.028,1.0195,0.8425,0.807,0.0725,-1.133,0.005
-0.32,-1.889,-1.5685,1.1045,0.624,-1.729,1.0265,0.763,1.0235,1.0185,0.842,0.8075,0.0725,-1.121,0.0045
-0.3255,-1.8855,-1.5595,1.1055,0.617,-1.7225,1.0235,0.757,1.0215,1.0185,0.843,0.808,0.0715,-1.115,0.0105
-0.322,-1.8815,-1.559,1.102,0.6185,-1.7205,1.0195,0.753,1.0155,1.013,0.8415,0.8055,0.072,-1.1175,0.011
-0.328,-1.8785,-1.5505,1.1035,0.611,-1.7145,1.0185,0.7485,1.011,1.0055,0.8375,0.8045,0.069,-1.108,0.0135
-0.3325,-1.887,-1.5545,1.1095,0.6105,-1.7205,1.0185,0.7445,1.005,0.997,0.833,0.8045,0.0665,-1.1155,0.015
-0.3345,-1.895,-1.5605,1.115,0.6125,-1.728,1.0165,0.7415,0.997,0.9875,0.8245,0.8,0.0645,-1.124,0.013
-0.3415,-1.902,-1.56,1.122,0.6085,-1.731,1.015,0.7375,0.9905,0.981,0.821,0.801,0.063,-1.1255,0.012
-0.3475,-1.904,-1.556,1.1255,0.604,-1.73,1.013,0.7345,0.985,0.977,0.818,0.799,0.061,-1.1205,0.008
-0.3495,-1.9005,-1.5505,1.125,0.6005,-1.726,1.0095,0.7315,0.981,0.972,0.8115,0.795,0.0595,-1.118,0.0105
-0.3485,-1.9025,-1.5535,1.1255,0.6025,-1.728,1.0075,0.729,0.9775,0.9695,0.8095,0.7955,0.0575,-1.121,0.016
-0.345,-1.899,-1.5535,1.122,0.604,-1.7265,1.007,0.726,0.9765,0.9705,0.8095,0.795,0.0555,-1.1185,0.0205
-0.335,-1.8955,-1.56,1.115,0.612,-1.728,1.0075,0.726,0.9775,0.9745,0.812,0.7965,0.055,-1.1245,0.0225
-0.3295,-1.888,-1.558,1.109,0.614,-1.7235,1.007,0.727,0.9775,0.9775,0.8155,0.7985,0.057,-1.1155,0.0245
-0.3275,-1.8835,-1.5555,1.1055,0.6135,-1.7195,1.0065,0.7255,0.978,0.9785,0.8155,0.8005,0.058,-1.1075,0.023
-0.3295,-1.8905,-1.5605,1.11,0.615,-1.726,1.006,0.7225,0.9745,0.9745,0.8125,0.8,0.056,-1.122,0.017
-0.334,-1.8965,-1.5625,1.115,0.614,-1.7295,1.0025,0.7175,0.967,0.9675,0.81,0.797,0.0545,-1.1295,0.017
-0.334,-1.8955,-1.5615,1.1145,0.6135,-1.729,0.9995,0.7135,0.9625,0.969,0.812,0.7975,0.056,-1.1275,0.0225
-0.3365,-1.8875,-1.5505,1.112,0.6065,-1.7195,0.997,0.7105,0.963,0.974,0.8155,0.798,0.059,-1.1155,0.0245
-0.333,-1.8825,-1.5485,1.108,0.6075,-1.716,0.9955,0.7125,0.9705,0.9825,0.8205,0.802,0.064,-1.108,0.0255
-0.3275,-1.884,-1.556,1.1055,0.614,-1.7205,0.9965,0.7145,0.9715,0.9805,0.817,0.802,0.0625,-1.1175,0.025
-0.3335,-1.8885,-1.5545,1.111,0.6105,-1.722,0.995,0.708,0.96,0.964,0.8065,0.7935,0.055,-1.1165,0.0255
-0.3395,-1.8905,-1.5505,1.115,0.6055,-1.721,0.992,0.703,0.952,0.953,0.8,0.79,0.0525,-1.117,0.0295
-0.3385,-1.887,-1.548,1.113,0.6045,-1.718,0.99,0.703,0.951,0.9515,0.8,0.7905,0.053,-1.1175,0.025
-0.3435,-1.8875,-1.543,1.1155,0.5995,-1.7155,0.985,0.6985,0.949,0.953,0.7995,0.788,0.0545,-1.1125,0.026
-0.34,-1.8895,-1.549,1.115,0.604,-1.7195,0.9845,0.6975,0.95,0.9565,0.801,0.787,0.056,-1.1175,0.0285
-0.3355,-1.8915,-1.5555,1.1135,0.61,-1.724,0.988,0.7005,0.951,0.959,0.8025,0.791,0.0575,-1.116,0.0265
-0.338,-1.894,-1.5555,1.116,0.6085,-1.725,0.9895,0.698,0.9485,0.955,0.8005,0.7905,0.056,-1.1185,0.028
-0.337,-1.8915,-1.554,1.1145,0.608,-1.723,0.9925,0.701,0.9505,0.954,0.804,0.791,0.052,-1.118,0.0265
-0.342,-1.893,-1.5505,1.118,0.604,-1.722,0.9945,0.705,0.951,0.9555,0.804,0.7915,0.0495,-1.1135,0.0265
-0.344,-1.895,-1.5505,1.1195,0.603,-1.723,0.996,0.7025,0.9505,0.9565,0.8045,0.7905,0.05,-1.1145,0.0315
-0.3455,-1.8925,-1.5465,1.119,0.6005,-1.72,0.995,0.7005,0.948,0.9545,0.8025,0.7885,0.0495,-1.108,0.036
-0.343,-1.8945,-1.551,1.119,0.6035,-1.723,0.995,0.699,0.9455,0.9505,0.802,0.7845,0.0475,-1.112,0.032
-0.342,-1.899,-1.5565,1.1205,0.607,-1.728,0.996,0.699,0.947,0.9525,0.804,0.7845,0.0475,-1.1135,0.029
-0.3435,-1.9035,-1.559,1.1235,0.6075,-1.7315,0.9955,0.6985,0.947,0.9545,0.804,0.786,0.045,-1.115,0.0295
-0.3395,-1.8995,-1.5595,1.1195,0.6095,-1.73,0.9945,0.698,0.9465,0.9555,0.8055,0.787,0.046,-1.115,0.032
-0.3385,-1.89,-1.551,1.1145,0.606,-1.721,0.992,0.696,0.946,0.9575,0.807,0.7895,0.048,-1.107,0.0325
-0.338,-1.891,-1.5525,1.1145,0.607,-1.722,0.9925,0.6955,0.9465,0.9605,0.811,0.79,0.047,-1.1115,0.027
-0.339,-1.891,-1.551,1.115,0.6055,-1.7215,0.9895,0.6945,0.9475,0.9665,0.8115,0.788,0.0475,-1.114,0.0265
-0.3425,-1.886,-1.543,1.1145,0.6,-1.7145,0.988,0.6955,0.951,0.9715,0.8165,0.7885,0.0495,-1.1055,0.029
-0.341,-1.885,-1.5435,1.113,0.601,-1.7145,0.9905,0.6985,0.95,0.966,0.816,0.7895,0.0485,-1.0985,0.035
-0.34,-1.886,-1.545,1.113,0.602,-1.7155,0.9895,0.697,0.9445,0.953,0.807,0.7875,0.044,-1.107,0.0355
-0.3435,-1.886,-1.542,1.115,0.599,-1.714,0.9875,0.693,0.9385,0.944,0.801,0.7815,0.041,-1.109,0.031
-0.341,-1.8865,-1.5445,1.114,0.6015,-1.7155,0.9835,0.689,0.9335,0.9415,0.7975,0.7785,0.044,-1.1125,0.0325
-0.347,-1.8865,-1.539,1.1165,0.596,-1.713,0.9775,0.687,0.932,0.942,0.797,0.777,0.045,-1.1095,0.033
-0.346,-1.887,-1.5405,1.1165,0.597,-1.714,0.978,0.6885,0.9355,0.945,0.8,0.7785,0.044,-1.105,0.0295
-0.3435,-1.8925,-1.5485,1.118,0.6025,-1.721,0.981,0.69,0.938,0.947,0.802,0.7805,0.0435,-1.1125,0.024
-0.3475,-1.8905,-1.5425,1.119,0.5975,-1.717,0.9835,0.6905,0.9375,0.9475,0.8025,0.782,0.042,-1.106,0.0235
-0.3395,-1.884,-1.544,1.112,0.602,-1.7145,0.988,0.6905,0.9395,0.95,0.804,0.7855,0.0435,-1.11,0.027
-0.344,-1.8865,-1.542,1.115,0.5985,-1.7145,0.987,0.6905,0.9395,0.95,0.8045,0.785,0.0455,-1.11,0.0275
-0.348,-1.887,-1.5385,1.1175,0.595,-1.713,0.9835,0.689,0.937,0.947,0.803,0.784,0.044,-1.109,0.0295
-0.3475,-1.886,-1.538,1.117,0.595,-1.7125,0.985,0.6885,0.9355,0.9465,0.8025,0.783,0.04,-1.1115,0.032
-0.344,-1.8885,-1.5435,1.116,0.5995,-1.7165,0.9875,0.6915,0.937,0.9475,0.802,0.783,0.0385,-1.1155,0.03
-0.3365,-1.891,-1.554,1.114,0.6085,-1.7225,0.9895,0.6925,0.941,0.9525,0.8075,0.7855,0.041,-1.1225,0.027
-0.337,-1.8905,-1.5535,1.114,0.608,-1.722,0.9885,0.6915,0.943,0.9555,0.8105,0.7845,0.0405,-1.119,0.025
-0.337,-1.886,-1.5485,1.1115,0.6055,-1.7175,0.987,0.6905,0.942,0.953,0.8075,0.7845,0.038,-1.1145,0.029
-0.3365,-1.8805,-1.5435,1.1085,0.603,-1.712,0.987,0.6905,0.941,0.952,0.807,0.7855,0.04,-1.1095,0.0305
-0.3365,-1.8795,-1.5425,1.108,0.6025,-1.711,0.9845,0.691,0.94,0.9505,0.804,0.785,0.039,-1.1075,0.027
-0.3375,-1.875,-1.5365,1.106,0.599,-1.706,0.982,0.686,0.9355,0.946,0.7995,0.782,0.0385,-1.1005,0.0295
-0.3325,-1.869,-1.536,1.1005,0.6015,-1.7025,0.9795,0.6825,0.9325,0.943,0.7955,0.7785,0.04,-1.092,0.0335
-0.3335,-1.8715,-1.538,1.1025,0.602,-1.705,0.9785,0.6845,0.933,0.943,0.7955,0.7785,0.04,-1.0915,0.0315
-0.336,-1.8725,-1.536,1.104,0.6,-1.705,0.9785,0.6855,0.9325,0.942,0.797,0.7825,0.041,-1.0945,0.0275
-0.336,-1.8735,-1.5365,1.105,0.6,-1.7055,0.9795,0.6845,0.9305,0.941,0.7955,0.785,0.043,-1.102,0.0305
-0.3435,-1.875,-1.531,1.1095,0.5935,-1.7035,0.9815,0.6825,0.9285,0.9415,0.795,0.7835,0.042,-1.097,0.0375
-0.347,-1.879,-1.5315,1.113,0.592,-1.7055,0.98,0.683,0.9275,0.939,0.7925,0.7815,0.0425,-1.095,0.04
-0.3485,-1.893,-1.544,1.1205,0.5975,-1.719,0.9805,0.684,0.9285,0.9405,0.7945,0.783,0.0445,-1.111,0.035
-0.3425,-1.889,-1.5455,1.116,0.601,-1.7175,0.985,0.6885,0.934,0.946,0.8,0.7885,0.0445,-1.103,0.032
-0.3375,-1.8735,-1.5355,1.1055,0.5985,-1.705,0.984,0.691,0.936,0.946,0.8005,0.7905,0.046,-1.094,0.034
-0.336,-1.87,-1.533,1.103,0.5985,-1.702,0.98,0.6875,0.9325,0.944,0.799,0.7875,0.0475,-1.1005,0.032
-0.3385,-1.8795,-1.54,1.109,0.6005,-1.71,0.9795,0.687,0.93,0.9435,0.7975,0.786,0.046,-1.109,0.031
-0.3445,-1.8935,-1.5485,1.119,0.602,-1.721,0.979,0.6855,0.9275,0.9445,0.7985,0.7855,0.047,-1.121,0.036
-0.343,-1.8985,-1.555,1.121,0.6055,-1.727,0.9765,0.6845,0.931,0.949,0.802,0.7865,0.0495,-1.1265,0.0325
-0.3385,-1.895,-1.5565,1.117,0.6085,-1.726,0.9765,0.6875,0.935,0.954,0.8065,0.7885,0.049,-1.1245,0.0255
-0.331,-1.8905,-1.5595,1.111,0.614,-1.7255,0.9765,0.6875,0.9345,0.953,0.806,0.7895,0.049,-1.1205,0.028
-0.3305,-1.894,-1.563,1.112,0.616,-1.7285,0.9785,0.6865,0.9325,0.9445,0.7985,0.787,0.048,-1.12,0.0335
-0.337,-1.8975,-1.5605,1.1175,0.6115,-1.729,0.9795,0.686,0.931,0.9395,0.7935,0.784,0.043,-1.118,0.04
-0.3385,-1.8985,-1.5595,1.1185,0.61,-1.729,0.976,0.6845,0.9315,0.94,0.7935,0.784,0.042,-1.119,0.0425
-0.344,-1.8965,-1.552,1.1205,0.6035,-1.7245,0.975,0.686,0.931,0.9395,0.791,0.781,0.0415,-1.1185,0.0385
-0.348,-1.902,-1.5535,1.125,0.6025,-1.728,0.9735,0.6835,0.927,0.939,0.7885,0.779,0.042,-1.1175,0.038
-0.3505,-1.9035,-1.552,1.127,0.6005,-1.728,0.973,0.682,0.925,0.9395,0.789,0.781,0.042,-1.114,0.0375
-0.3455,-1.8955,-1.5495,1.1205,0.6015,-1.723,0.9745,0.682,0.9265,0.9395,0.79,0.781,0.04,-1.108,0.0385
-0.3355,-1.887,-1.551,1.111,0.6075,-1.719,0.9745,0.683,0.93,0.9405,0.794,0.7835,0.0435,-1.0995,0.039
-0.3385,-1.8765,-1.5375,1.1075,0.5995,-1.7075,0.975,0.6835,0.931,0.9425,0.799,0.788,0.0465,-1.097,0.035
-0.3425,-1.8855,-1.5425,1.114,0.5995,-1.714,0.9725,0.68,0.926,0.9395,0.798,0.7865,0.046,-1.1005,0.0405
-0.345,-1.892,-1.5465,1.1185,0.6005,-1.7195,0.971,0.6795,0.926,0.9395,0.7965,0.7855,0.0485,-1.106,0.047
-0.344,-1.89,-1.5455,1.1175,0.6005,-1.718,0.9725,0.681,0.925,0.9395,0.796,0.7865,0.05,-1.116,0.045
-0.3405,-1.896,-1.555,1.118,0.607,-1.726,0.9725,0.681,0.9245,0.941,0.795,0.786,0.0475,-1.1235,0.041
-0.337,-1.898,-1.561,1.1175,0.6115,-1.7295,0.971,0.681,0.926,0.947,0.797,0.787,0.048,-1.13,0.038
-0.3365,-1.8935,-1.557,1.115,0.61,-1.7255,0.974,0.6845,0.9315,0.953,0.803,0.789,0.0465,-1.126,0.037
-0.3385,-1.892,-1.553,1.1155,0.607,-1.723,0.9735,0.6865,0.938,0.959,0.808,0.792,0.0505,-1.119,0.035
-0.34,-1.893,-1.552,1.1165,0.6055,-1.7225,0.9725,0.685,0.9335,0.953,0.802,0.787,0.05,-1.1155,0.038
-0.338,-1.8855,-1.547,1.112,0.604,-1.7165,0.9755,0.686,0.932,0.948,0.798,0.787,0.0425,-1.1095,0.0435
-0.336,-1.889,-1.5525,1.1125,0.608,-1.721,0.973,0.684,0.928,0.945,0.796,0.784,0.04,-1.1115,0.0415
-0.346,-1.9015,-1.5555,1.1235,0.6045,-1.7285,0.9695,0.6815,0.9245,0.9425,0.793,0.778,0.0395,-1.1155,0.038
-0.3475,-1.9035,-1.5555,1.1255,0.6035,-1.7295,0.9685,0.6835,0.9295,0.9485,0.7945,0.7785,0.0395,-1.1195,0.0345
-0.3455,-1.8985,-1.5525,1.1225,0.603,-1.7255,0.969,0.682,0.928,0.947,0.793,0.7775,0.0375,-1.123,0.03
-0.3445,-1.8955,-1.5505,1.1205,0.6025,-1.7235,0.9685,0.68,0.925,0.9385,0.786,0.7755,0.0375,-1.127,0.032
-0.3485,-1.901,-1.552,1.125,0.6015,-1.727,0.969,0.679,0.9235,0.9305,0.779,0.7705,0.033,-1.127,0.0335
-0.3595,-1.915,-1.555,1.137,0.5975,-1.735,0.967,0.6765,0.92,0.927,0.7765,0.768,0.0295,-1.1315,0.0325
-0.3605,-1.923,-1.562,1.142,0.6005,-1.743,0.962,0.674,0.918,0.9285,0.778,0.7665,0.031,-1.1345,0.0345
-0.363,-1.918,-1.5545,1.1405,0.5955,-1.736,0.965,0.677,0.925,0.9415,0.788,0.7705,0.0355,-1.1235,0.0335
-0.3605,-1.9115,-1.5505,1.136,0.595,-1.731,0.969,0.6815,0.929,0.947,0.7905,0.776,0.038,-1.1205,0.0365
-0.3575,-1.9095,-1.551,1.1335,0.5965,-1.7305,0.97,0.677,0.923,0.9385,0.7835,0.776,0.035,-1.12,0.044
-0.357,-1.9025,-1.545,1.13,0.5935,-1.724,0.9745,0.6795,0.9225,0.9335,0.781,0.7785,0.031,-1.114,0.0455
-0.3565,-1.895,-1.5385,1.126,0.5905,-1.717,0.9725,0.6785,0.922,0.932,0.7775,0.775,0.0305,-1.1065,0.0465
-0.356,-1.8895,-1.5335,1.123,0.5885,-1.712,0.9665,0.6705,0.917,0.9305,0.7755,0.771,0.0315,-1.109,0.0405
-0.3545,-1.8905,-1.5355,1.1225,0.59,-1.713,0.9665,0.6725,0.919,0.9285,0.7775,0.7725,0.0315,-1.1125,0.036
-0.3565,-1.895,-1.5385,1.1255,0.5905,-1.7165,0.966,0.67,0.919,0.9255,0.774,0.7715,0.0315,-1.113,0.0385
-0.3535,-1.8975,-1.5435,1.1255,0.5945,-1.7205,0.966,0.6705,0.917,0.9235,0.7725,0.77,0.0325,-1.1155,0.0385
-0.355,-1.903,-1.5475,1.129,0.596,-1.7255,0.967,0.6715,0.9175,0.9255,0.774,0.772,0.0335,-1.125,0.039
-0.356,-1.909,-1.5525,1.1325,0.598,-1.731,0.9675,0.671,0.918,0.925,0.776,0.7735,0.0365,-1.133,0.0375
-0.3495,-1.91,-1.5595,1.1295,0.6045,-1.735,0.9695,0.6745,0.9215,0.928,0.779,0.7755,0.0395,-1.129,0.039
-0.3445,-1.9065,-1.5615,1.1255,0.608,-1.734,0.971,0.676,0.923,0.929,0.78,0.777,0.0375,-1.128,0.041
-0.3425,-1.9095,-1.5665,1.126,0.612,-1.7385,0.971,0.6765,0.9225,0.928,0.7825,0.777,0.037,-1.131,0.0385
-0.3395,-1.913,-1.573,1.1265,0.6165,-1.743,0.9725,0.6775,0.9245,0.9315,0.7845,0.7775,0.0375,-1.1365,0.041
-0.3425,-1.9075,-1.564,1.125,0.6105,-1.736,0.97,0.674,0.9215,0.9305,0.783,0.7775,0.0365,-1.128,0.044
-0.3435,-1.8995,-1.556,1.1215,0.606,-1.728,0.9655,0.6705,0.9195,0.9295,0.7825,0.7785,0.037,-1.1155,0.045
-0.341,-1.897,-1.5555,1.119,0.607,-1.7265,0.9675,0.6715,0.918,0.928,0.7815,0.7785,0.037,-1.116,0.049
-0.346,-1.906,-1.5595,1.126,0.6065,-1.733,0.969,0.672,0.914,0.9235,0.779,0.778,0.036,-1.121,0.05
-0.35,-1.9135,-1.563,1.132,0.6065,-1.739,0.97,0.672,0.9135,0.9245,0.7805,0.7775,0.0325,-1.127,0.045
-0.3495,-1.908,-1.558,1.1285,0.604,-1.7335,0.969,0.6715,0.9115,0.924,0.78,0.7765,0.032,-1.1295,0.046
-0.3445,-1.903,-1.5575,1.1235,0.606,-1.7305,0.966,0.671,0.912,0.923,0.781,0.7775,0.036,-1.1305,0.0515
-0.345,-1.903,-1.5575,1.124,0.606,-1.7305,0.964,0.669,0.9115,0.923,0.7805,0.7775,0.035,-1.1305,0.0495
-0.3465,-1.903,-1.556,1.1245,0.6045,-1.7295,0.963,0.67,0.9115,0.9225,0.78,0.776,0.032,-1.1335,0.0445
-0.351,-1.902,-1.5505,1.1265,0.5995,-1.7265,0.965,0.671,0.9145,0.9245,0.7815,0.775,0.031,-1.1335,0.038
-0.3515,-1.902,-1.55,1.1265,0.599,-1.726,0.965,0.6695,0.914,0.9245,0.778,0.774,0.0285,-1.13,0.0385
-0.346,-1.8985,-1.552,1.1225,0.6025,-1.7255,0.9625,0.67,0.9125,0.9205,0.775,0.7715,0.028,-1.126,0.049
-0.346,-1.8935,-1.547,1.12,0.6005,-1.7205,0.962,0.667,0.909,0.917,0.7735,0.7695,0.0295,-1.1205,0.0515
-0.345,-1.895,-1.5495,1.12,0.602,-1.7225,0.962,0.666,0.9065,0.916,0.7715,0.768,0.0275,-1.124,0.053
-0.3475,-1.8995,-1.551,1.1235,0.6015,-1.7255,0.9595,0.663,0.905,0.9155,0.772,0.7665,0.0265,-1.1235,0.0525
-0.3485,-1.9,-1.551,1.1245,0.601,-1.726,0.957,0.6585,0.903,0.917,0.7715,0.765,0.0265,-1.127,0.0495
-0.3465,-1.8975,-1.55,1.122,0.6015,-1.7245,0.9575,0.66,0.903,0.9225,0.773,0.766,0.0255,-1.1285,0.051
-0.343,-1.8915,-1.5485,1.1175,0.6025,-1.7205,0.9585,0.66,0.9045,0.926,0.7765,0.7675,0.027,-1.1145,0.0515
-0.34,-1.892,-1.5515,1.116,0.6055,-1.722,0.958,0.657,0.903,0.924,0.7755,0.7675,0.028,-1.1115,0.057
-0.343,-1.9,-1.5565,1.1215,0.6065,-1.7285,0.9615,0.6615,0.9045,0.925,0.778,0.7705,0.027,-1.1145,0.057
-0.347,-1.9015,-1.554,1.124,0.603,-1.728,0.96,0.662,0.902,0.918,0.772,0.7665,0.024,-1.1165,0.053
-0.35,-1.902,-1.551,1.126,0.6005,-1.727,0.955,0.657,0.897,0.9075,0.7645,0.763,0.0225,-1.121,0.0505
-0.3495,-1.904,-1.5535,1.1265,0.6015,-1.729,0.954,0.6555,0.8975,0.909,0.767,0.766,0.025,-1.1195,0.048
-0.349,-1.9035,-1.554,1.126,0.6025,-1.729,0.9515,0.6535,0.8975,0.911,0.7675,0.7665,0.0265,-1.121,0.0535
-0.344,-1.9005,-1.5555,1.1225,0.6055,-1.7285,0.9515,0.6535,0.8985,0.9125,0.771,0.77,0.0265,-1.122,0.055
-0.336,-1.897,-1.561,1.1165,0.612,-1.7295,0.951,0.653,0.901,0.914,0.7705,0.768,0.025,-1.132,0.0515
-0.3345,-1.8925,-1.5575,1.1135,0.6115,-1.7255,0.95,0.654,0.9055,0.922,0.774,0.77,0.0275,-1.124,0.053
-0.3385,-1.8895,-1.5505,1.114,0.606,-1.7205,0.9515,0.654,0.908,0.9255,0.779,0.775,0.032,-1.113,0.059
-0.344,-1.895,-1.5505,1.1195,0.603,-1.7235,0.948,0.6495,0.9005,0.911,0.771,0.77,0.0295,-1.1255,0.0575
-0.356,-1.901,-1.5445,1.1285,0.5945,-1.723,0.9435,0.6435,0.8865,0.8965,0.7595,0.761,0.023,-1.123,0.054
-0.359,-1.9095,-1.55,1.134,0.5955,-1.73,0.9445,0.6445,0.8845,0.8955,0.7575,0.7595,0.0215,-1.1235,0.053
-0.354,-1.9085,-1.554,1.1315,0.5995,-1.7315,0.9445,0.6435,0.8845,0.899,0.759,0.7605,0.0215,-1.125,0.0545
-0.354,-1.9035,-1.5495,1.1285,0.5975,-1.7265,0.9425,0.641,0.881,0.897,0.7555,0.7595,0.0215,-1.122,0.0585
-0.35,-1.9045,-1.5545,1.127,0.602,-1.7295,0.9465,0.646,0.8855,0.9,0.759,0.7615,0.0225,-1.1195,0.059
-0.35,-1.9075,-1.557,1.1285,0.603,-1.7325,0.9485,0.646,0.887,0.9005,0.7585,0.761,0.02,-1.127,0.053
-0.3545,-1.9055,-1.5505,1.13,0.598,-1.7285,0.9465,0.6445,0.883,0.898,0.7565,0.7595,0.0185,-1.13,0.0515
-0.3575,-1.901,-1.543,1.1295,0.5925,-1.7225,0.948,0.646,0.882,0.8995,0.7585,0.7595,0.018,-1.1135,0.0615
-0.3515,-1.903,-1.551,1.127,0.5995,-1.727,0.95,0.647,0.885,0.9015,0.7605,0.76,0.0175,-1.1215,0.0575
-0.343,-1.906,-1.5625,1.1245,0.6095,-1.7345,0.9485,0.6455,0.884,0.9015,0.76,0.7595,0.019,-1.134,0.0545
-0.342,-1.908,-1.5655,1.125,0.6115,-1.737,0.9475,0.6465,0.8825,0.9015,0.76,0.762,0.021,-1.136,0.0605
-0.339,-1.9015,-1.562,1.1205,0.611,-1.732,0.9485,0.6465,0.884,0.903,0.7635,0.7635,0.023,-1.136,0.0575
-0.345,-1.9005,-1.555,1.1225,0.6045,-1.728,0.942,0.641,0.881,0.9015,0.7635,0.7615,0.025,-1.129,0.054
-0.3535,-1.906,-1.552,1.1295,0.599,-1.729,0.9385,0.638,0.877,0.8965,0.762,0.7615,0.0255,-1.1235,0.0565
-0.351,-1.905,-1.554,1.128,0.6015,-1.7295,0.9405,0.637,0.8775,0.897,0.763,0.7625,0.024,-1.1225,0.057
-0.339,-1.8935,-1.554,1.116,0.6075,-1.724,0.9405,0.6375,0.8825,0.9025,0.767,0.766,0.025,-1.122,0.0565
-0.336,-1.8865,-1.5505,1.1115,0.607,-1.7185,0.9435,0.6395,0.8825,0.902,0.7675,0.7675,0.0255,-1.1125,0.064
-0.3445,-1.897,-1.552,1.121,0.6035,-1.725,0.944,0.639,0.879,0.899,0.765,0.7645,0.024,-1.1175,0.064
-0.35,-1.904,-1.5535,1.127,0.6015,-1.729,0.942,0.638,0.877,0.897,0.764,0.7645,0.0255,-1.127,0.0625
-0.3535,-1.907,-1.553,1.13,0.5995,-1.73,0.94,0.636,0.8755,0.896,0.765,0.7665,0.025,-1.1205,0.0615
-0.3575,-1.911,-1.553,1.1345,0.5975,-1.7325,0.9375,0.634,0.8725,0.893,0.761,0.762,0.024,-1.1275,0.0595
-0.3615,-1.9145,-1.552,1.138,0.595,-1.7335,0.9345,0.6335,0.8695,0.8925,0.7585,0.76,0.024,-1.1265,0.0625
-0.3605,-1.9135,-1.5525,1.137,0.596,-1.733,0.9335,0.6335,0.8695,0.8935,0.7625,0.7635,0.024,-1.1175,0.066
-0.355,-1.9075,-1.552,1.1315,0.598,-1.73,0.9345,0.632,0.8715,0.8915,0.7625,0.7645,0.027,-1.1135,0.071
-0.353,-1.9035,-1.5505,1.128,0.5985,-1.7275,0.9355,0.6355,0.874,0.8935,0.763,0.765,0.026,-1.108,0.072
-0.3475,-1.9,-1.552,1.1235,0.602,-1.726,0.94,0.635,0.874,0.894,0.7635,0.764,0.026,-1.123,0.0655
-0.347,-1.8975,-1.55,1.1225,0.601,-1.724,0.942,0.6335,0.875,0.8965,0.7665,0.767,0.0285,-1.1255,0.065
-0.348,-1.8995,-1.551,1.124,0.6015,-1.7255,0.9405,0.634,0.8745,0.8985,0.769,0.768,0.027,-1.123,0.0655
-0.342,-1.899,-1.556,1.1205,0.6065,-1.7275,0.9415,0.635,0.8755,0.899,0.77,0.7665,0.0255,-1.127,0.056
-0.345,-1.902,-1.5565,1.1235,0.6055,-1.7295,0.9405,0.6355,0.873,0.902,0.7715,0.766,0.0245,-1.126,0.0555
-0.3475,-1.909,-1.561,1.128,0.6065,-1.735,0.939,0.6335,0.8695,0.9005,0.7695,0.766,0.0265,-1.128,0.064
-0.352,-1.9055,-1.553,1.129,0.6,-1.7295,0.94,0.6325,0.8695,0.897,0.7685,0.766,0.024,-1.115,0.069
-0.3475,-1.891,-1.543,1.119,0.5975,-1.717,0.9425,0.6325,0.8685,0.8975,0.7685,0.765,0.024,-1.1085,0.0665
-0.338,-1.885,-1.546,1.1115,0.6035,-1.716,0.944,0.636,0.8725,0.9015,0.7715,0.765,0.026,-1.115,0.061
-0.3375,-1.887,-1.5485,1.112,0.605,-1.718,0.9425,0.6365,0.8725,0.899,0.77,0.7645,0.0255,-1.1205,0.062
-0.34,-1.8875,-1.547,1.1135,0.6035,-1.7175,0.942,0.637,0.8715,0.896,0.7655,0.7635,0.023,-1.1145,0.062
-0.3425,-1.891,-1.548,1.117,0.6025,-1.7195,0.941,0.634,0.8685,0.8945,0.7645,0.7605,0.0215,-1.1185,0.0615
-0.3445,-1.8965,-1.5515,1.1205,0.603,-1.7245,0.938,0.6295,0.863,0.892,0.7615,0.7575,0.0235,-1.132,0.0625
-0.347,-1.901,-1.5535,1.1235,0.603,-1.7275,0.9365,0.631,0.862,0.8895,0.759,0.755,0.022,-1.132,0.0625
-0.3465,-1.8995,-1.552,1.123,0.6025,-1.726,0.936,0.628,0.859,0.8865,0.7565,0.7525,0.021,-1.1315,0.063
-0.353,-1.896,-1.5425,1.1245,0.5945,-1.7195,0.934,0.6245,0.8565,0.885,0.7535,0.751,0.0205,-1.121,0.0685
-0.346,-1.8935,-1.547,1.12,0.6,-1.7205,0.9355,0.626,0.86,0.892,0.759,0.7555,0.023,-1.1245,0.066
-0.345,-1.898,-1.5525,1.1215,0.6035,-1.7255,0.936,0.63,0.8675,0.907,0.7675,0.763,0.028,-1.1295,0.0635
-0.354,-1.905,-1.5505,1.1295,0.598,-1.728,0.9345,0.6305,0.8715,0.9125,0.7725,0.7675,0.0335,-1.1235,0.0675
-0.358,-1.9105,-1.5515,1.134,0.5965,-1.7315,0.9365,0.629,0.87,0.9065,0.7725,0.768,0.032,-1.1225,0.068
-0.359,-1.91,-1.5505,1.1345,0.5955,-1.7305,0.9335,0.6275,0.8595,0.8925,0.7625,0.765,0.028,-1.123,0.069
-0.3545,-1.9065,-1.5515,1.1305,0.5985,-1.729,0.934,0.6265,0.859,0.8845,0.7595,0.766,0.027,-1.1295,0.0655
-0.3525,-1.906,-1.553,1.129,0.6,-1.7295,0.936,0.625,0.861,0.886,0.7585,0.766,0.0255,-1.1305,0.0665
-0.347,-1.9075,-1.56,1.127,0.6065,-1.734,0.935,0.626,0.863,0.892,0.7625,0.7675,0.0265,-1.132,0.0675
-0.3405,-1.8995,-1.5585,1.12,0.6085,-1.729,0.939,0.6315,0.871,0.8995,0.772,0.7725,0.028,-1.1235,0.0665
-0.3385,-1.8945,-1.5555,1.1165,0.608,-1.7255,0.9385,0.63,0.8685,0.898,0.7695,0.77,0.026,-1.1185,0.07
-0.3445,-1.9075,-1.5625,1.126,0.6085,-1.735,0.9365,0.6265,0.864,0.894,0.7655,0.7665,0.025,-1.127,0.0695
-0.3495,-1.9135,-1.5635,1.1315,0.6065,-1.739,0.9365,0.6265,0.861,0.8885,0.763,0.767,0.026,-1.1295,0.068
-0.351,-1.9165,-1.565,1.134,0.6065,-1.741,0.9335,0.6245,0.8585,0.8855,0.76,0.7695,0.0265,-1.1315,0.0645
-0.3415,-1.908,-1.5655,1.1245,0.6115,-1.737,0.9345,0.6235,0.8595,0.8865,0.762,0.773,0.028,-1.123,0.069
-0.3355,-1.9025,-1.5665,1.1185,0.6155,-1.7345,0.9365,0.625,0.862,0.889,0.766,0.7755,0.029,-1.122,0.07
-0.3445,-1.913,-1.568,1.1285,0.6115,-1.7405,0.9355,0.6255,0.8615,0.8895,0.766,0.7735,0.028,-1.134,0.07
-0.349,-1.909,-1.5595,1.129,0.605,-1.7345,0.9355,0.625,0.86,0.891,0.7695,0.778,0.032,-1.1245,0.077
-0.3485,-1.906,-1.557,1.127,0.604,-1.7315,0.932,0.623,0.858,0.8945,0.7745,0.783,0.0385,-1.122,0.084
-0.3505,-1.9075,-1.5565,1.129,0.6025,-1.7325,0.9305,0.621,0.8575,0.8975,0.7755,0.78,0.039,-1.1285,0.0835
-0.3535,-1.9065,-1.5525,1.13,0.5995,-1.73,0.9285,0.618,0.859,0.899,0.7765,0.7775,0.041,-1.121,0.0795
-0.349,-1.9085,-1.5585,1.1285,0.6045,-1.7335,0.929,0.62,0.861,0.9035,0.776,0.7755,0.042,-1.12,0.0825
-0.353,-1.91,-1.5565,1.131,0.6015,-1.7335,0.933,0.6235,0.8655,0.9065,0.779,0.7775,0.0385,-1.116,0.0825
-0.3555,-1.912,-1.556,1.134,0.6,-1.7345,0.9315,0.621,0.865,0.901,0.7765,0.776,0.0375,-1.1205,0.0795
-0.3505,-1.9205,-1.57,1.1355,0.6095,-1.7455,0.9345,0.6225,0.864,0.899,0.776,0.773,0.0355,-1.14,0.073
-0.3495,-1.924,-1.5745,1.137,0.6125,-1.7495,0.934,0.624,0.862,0.8975,0.7755,0.773,0.0365,-1.143,0.0705
-0.3505,-1.921,-1.5705,1.1355,0.6095,-1.746,0.9325,0.6235,0.8615,0.8945,0.772,0.774,0.037,-1.141,0.073
-0.352,-1.919,-1.5665,1.1355,0.607,-1.743,0.934,0.6215,0.861,0.891,0.7695,0.771,0.031,-1.1415,0.0735
-0.3425,-1.9105,-1.5675,1.1265,0.6125,-1.7395,0.935,0.6225,0.8595,0.888,0.764,0.7675,0.0285,-1.1375,0.0755
-0.343,-1.909,-1.5655,1.126,0.611,-1.7375,0.937,0.6245,0.861,0.888,0.7645,0.7685,0.025,-1.128,0.076
-0.347,-1.9125,-1.5655,1.1295,0.609,-1.739,0.936,0.623,0.861,0.8885,0.764,0.7665,0.0215,-1.126,0.073
-0.348,-1.916,-1.5675,1.132,0.6095,-1.742,0.9315,0.621,0.8585,0.887,0.762,0.766,0.024,-1.1345,0.0665
-0.352,-1.917,-1.5645,1.1345,0.606,-1.741,0.935,0.625,0.861,0.8885,0.7655,0.767,0.025,-1.1355,0.06
-0.351,-1.9145,-1.563,1.133,0.6055,-1.739,0.937,0.6265,0.8625,0.8895,0.7685,0.769,0.0245,-1.133,0.0625
-0.352,-1.912,-1.5595,1.132,0.6035,-1.736,0.934,0.623,0.859,0.8885,0.7675,0.77,0.0245,-1.127,0.07
-0.348,-1.906,-1.5575,1.1265,0.6045,-1.732,0.936,0.622,0.861,0.89,0.767,0.768,0.0225,-1.123,0.0685
-0.3405,-1.905,-1.564,1.1225,0.6115,-1.7345,0.9335,0.6205,0.861,0.8905,0.765,0.7645,0.022,-1.1325,0.0645
-0.3405,-1.905,-1.564,1.123,0.6115,-1.7345,0.931,0.6215,0.8595,0.89,0.7655,0.7655,0.025,-1.136,0.07
-0.3515,-1.911,-1.559,1.131,0.6035,-1.735,0.9315,0.6195,0.8595,0.889,0.7675,0.7655,0.0265,-1.1295,0.074
-0.345,-1.911,-1.5655,1.128,0.61,-1.7385,0.928,0.617,0.8575,0.887,0.765,0.7665,0.0305,-1.1295,0.0745
-0.349,-1.911,-1.562,1.13,0.6065,-1.7365,0.9245,0.6135,0.853,0.883,0.76,0.7635,0.0295,-1.1335,0.07
-0.3545,-1.912,-1.5575,1.133,0.6015,-1.735,0.9255,0.6125,0.8535,0.8835,0.759,0.7625,0.0255,-1.135,0.0645
-0.3485,-1.906,-1.557,1.127,0.604,-1.732,0.928,0.615,0.858,0.8885,0.7635,0.768,0.0265,-1.1305,0.066
-0.352,-1.907,-1.5545,1.1295,0.601,-1.731,0.928,0.615,0.8565,0.888,0.763,0.7665,0.021,-1.127,0.071
-0.3505,-1.908,-1.557,1.129,0.603,-1.7325,0.929,0.6185,0.8585,0.8895,0.762,0.768,0.021,-1.124,0.0795
-0.353,-1.9135,-1.56,1.133,0.6035,-1.7365,0.929,0.6205,0.8575,0.8885,0.763,0.767,0.0245,-1.1295,0.082
-0.353,-1.909,-1.5555,1.131,0.601,-1.7325,0.9295,0.6195,0.8555,0.886,0.761,0.7645,0.023,-1.126,0.0825
-0.349,-1.9065,-1.557,1.1275,0.6035,-1.732,0.931,0.6175,0.8525,0.883,0.7585,0.761,0.021,-1.1325,0.0765
-0.346,-1.91,-1.563,1.128,0.6085,-1.737,0.929,0.6165,0.8495,0.8825,0.7595,0.7585,0.018,-1.1425,0.0665
-0.3455,-1.9045,-1.558,1.125,0.606,-1.731,0.9315,0.6175,0.8535,0.8905,0.766,0.7645,0.0185,-1.133,0.0695
-0.343,-1.91,-1.566,1.1265,0.611,-1.738,0.9325,0.62,0.859,0.8995,0.7735,0.77,0.0245,-1.1385,0.074
-0.342,-1.9165,-1.5735,1.1295,0.6155,-1.7455,0.927,0.619,0.8605,0.905,0.776,0.7695,0.028,-1.1415,0.074
-0.342,-1.922,-1.5795,1.132,0.6185,-1.751,0.926,0.6185,0.861,0.9045,0.774,0.7695,0.0295,-1.153,0.072
-0.343,-1.923,-1.5795,1.133,0.618,-1.7515,0.9275,0.6195,0.8605,0.901,0.7725,0.7685,0.0275,-1.154,0.065
-0.3455,-1.923,-1.577,1.1345,0.6155,-1.7505,0.9285,0.619,0.8585,0.8935,0.768,0.767,0.0235,-1.149,0.063
-0.342,-1.924,-1.5815,1.133,0.6195,-1.753,0.9275,0.62,0.855,0.883,0.759,0.7625,0.022,-1.1515,0.0685
-0.3425,-1.917,-1.5735,1.13,0.6155,-1.7455,0.927,0.619,0.853,0.8785,0.753,0.758,0.0185,-1.1425,0.0705
-0.3395,-1.903,-1.5625,1.1215,0.611,-1.733,0.926,0.6165,0.851,0.8785,0.754,0.761,0.0225,-1.1285,0.0785
-0.345,-1.8995,-1.5535,1.122,0.604,-1.7265,0.9245,0.6165,0.85,0.881,0.758,0.764,0.025,-1.1215,0.084
-0.3525,-1.9035,-1.5505,1.128,0.599,-1.7275,0.9265,0.619,0.854,0.8835,0.762,0.768,0.022,-1.123,0.0745
-0.347,-1.8985,-1.5505,1.123,0.6015,-1.725,0.9265,0.6175,0.855,0.885,0.765,0.769,0.025,-1.1175,0.0795
-0.347,-1.905,-1.5575,1.126,0.605,-1.7315,0.928,0.6175,0.8545,0.885,0.7625,0.767,0.026,-1.1255,0.0835
-0.344,-1.9085,-1.564,1.126,0.6095,-1.7365,0.9265,0.618,0.856,0.885,0.763,0.7675,0.024,-1.1355,0.075
-0.345,-1.9095,-1.564,1.127,0.6095,-1.737,0.923,0.616,0.856,0.8885,0.766,0.7685,0.0245,-1.1345,0.074
-0.3535,-1.9145,-1.5605,1.1335,0.6035,-1.7375,0.9255,0.6165,0.8565,0.894,0.768,0.771,0.025,-1.129,0.0755
-0.353,-1.915,-1.562,1.134,0.6045,-1.739,0.927,0.618,0.8575,0.8955,0.77,0.77,0.024,-1.1345,0.0765
-0.3495,-1.918,-1.568,1.134,0.609,-1.743,0.9245,0.615,0.855,0.8925,0.768,0.7685,0.0265,-1.151,0.069
-0.346,-1.9085,-1.562,1.1275,0.608,-1.7355,0.9255,0.612,0.8555,0.8955,0.7725,0.771,0.026,-1.137,0.0695
-0.339,-1.8955,-1.556,1.1175,0.6085,-1.726,0.926,0.6155,0.861,0.9055,0.78,0.774,0.0285,-1.121,0.076
-0.335,-1.894,-1.5585,1.1145,0.6115,-1.7265,0.9285,0.6195,0.865,0.9075,0.781,0.775,0.0295,-1.1265,0.066
-0.3335,-1.9045,-1.5705,1.119,0.618,-1.7375,0.934,0.623,0.863,0.8995,0.774,0.7715,0.024,-1.146,0.056
-0.3365,-1.9065,-1.5695,1.1215,0.6165,-1.738,0.9345,0.623,0.8585,0.8865,0.765,0.767,0.02,-1.1465,0.062
-0.339,-1.903,-1.5635,1.121,0.612,-1.733,0.9335,0.621,0.859,0.883,0.764,0.768,0.022,-1.125,0.074
-0.346,-1.9075,-1.5605,1.1265,0.607,-1.734,0.9305,0.6185,0.8585,0.8855,0.766,0.7665,0.024,-1.1205,0.0775
-0.353,-1.9115,-1.558,1.132,0.602,-1.735,0.927,0.6145,0.8555,0.886,0.7655,0.7645,0.024,-1.1255,0.079
-0.3485,-1.9135,-1.5645,1.131,0.6075,-1.739,0.926,0.613,0.855,0.886,0.7635,0.7655,0.029,-1.132,0.08
-0.3475,-1.914,-1.5665,1.131,0.609,-1.7405,0.926,0.6175,0.859,0.8895,0.7645,0.7665,0.0285,-1.131,0.0735
-0.3455,-1.9145,-1.5685,1.13,0.611,-1.742,0.93,0.6225,0.863,0.892,0.766,0.77,0.03,-1.13,0.0745
-0.349,-1.914,-1.5645,1.1315,0.6075,-1.7395,0.9295,0.6195,0.8555,0.884,0.76,0.765,0.028,-1.134,0.08
-0.3515,-1.911,-1.559,1.131,0.6035,-1.735,0.926,0.6175,0.8535,0.883,0.758,0.763,0.0275,-1.14,0.076
-0.352,-1.9115,-1.559,1.132,0.603,-1.735,0.928,0.619,0.8565,0.8875,0.761,0.7655,0.031,-1.14,0.075
-0.348,-1.9105,-1.562,1.129,0.6065,-1.736,0.9275,0.6195,0.8565,0.886,0.7595,0.761,0.0275,-1.138,0.0755
-0.336,-1.9005,-1.5645,1.118,0.614,-1.733,0.924,0.619,0.856,0.884,0.7595,0.7585,0.028,-1.148,0.07
-0.337,-1.901,-1.5635,1.119,0.613,-1.7325,0.9255,0.6205,0.856,0.8825,0.7595,0.7595,0.0265,-1.1565,0.0645
-0.343,-1.905,-1.5615,1.124,0.609,-1.7335,0.927,0.6195,0.854,0.881,0.7545,0.758,0.024,-1.152,0.0685
-0.3475,-1.909,-1.5605,1.128,0.606,-1.735,0.925,0.6175,0.8495,0.8765,0.749,0.754,0.0215,-1.1495,0.074
-0.3515,-1.909,-1.557,1.13,0.6025,-1.7335,0.9255,0.618,0.8505,0.8775,0.749,0.755,0.022,-1.142,0.075
-0.353,-1.909,-1.556,1.131,0.6015,-1.733,0.927,0.615,0.8505,0.879,0.752,0.757,0.022,-1.1355,0.0795
-0.3455,-1.908,-1.562,1.127,0.608,-1.735,0.928,0.6155,0.85,0.878,0.752,0.7555,0.017,-1.143,0.075
-0.3335,-1.9025,-1.568,1.118,0.617,-1.7355,0.929,0.6215,0.8555,0.884,0.7535,0.755,0.0165,-1.144,0.07
-0.33,-1.9035,-1.5735,1.1165,0.6215,-1.7385,0.9335,0.6265,0.863,0.8925,0.762,0.76,0.0195,-1.1405,0.0715
-0.3365,-1.9,-1.563,1.1185,0.6125,-1.7315,0.9315,0.624,0.863,0.895,0.766,0.7605,0.0215,-1.1315,0.072
-0.3455,-1.906,-1.56,1.126,0.6065,-1.733,0.925,0.619,0.8555,0.887,0.7605,0.7565,0.021,-1.1305,0.073
-0.3495,-1.907,-1.5565,1.128,0.603,-1.732,0.9265,0.616,0.8535,0.88,0.7585,0.757,0.0175,-1.1285,0.0705
-0.345,-1.9015,-1.556,1.1235,0.605,-1.729,0.924,0.614,0.8525,0.878,0.7585,0.7585,0.0195,-1.1295,0.072
-0.344,-1.9005,-1.556,1.1225,0.6055,-1.7285,0.9195,0.6135,0.8495,0.877,0.757,0.757,0.022,-1.1285,0.078
-0.3465,-1.8965,-1.5495,1.1215,0.601,-1.7235,0.9225,0.6125,0.85,0.8815,0.758,0.7575,0.021,-1.1185,0.081
-0.3465,-1.9015,-1.5545,1.124,0.604,-1.7285,0.925,0.6135,0.854,0.882,0.76,0.7605,0.024,-1.1225,0.082
-0.3585,-1.9085,-1.549,1.1335,0.595,-1.729,0.9235,0.613,0.8535,0.8775,0.7575,0.76,0.0245,-1.1235,0.078
-0.367,-1.9205,-1.553,1.144,0.5925,-1.737,0.92,0.6115,0.848,0.873,0.75,0.7535,0.0225,-1.1305,0.072
-0.3655,-1.9205,-1.554,1.143,0.594,-1.7375,0.919,0.6105,0.848,0.873,0.7495,0.751,0.0205,-1.135,0.069
-0.3565,-1.909,-1.552,1.1325,0.5975,-1.7305,0.9215,0.6125,0.8515,0.8785,0.7545,0.7565,0.0235,-1.137,0.068
-0.3485,-1.9,-1.551,1.1245,0.601,-1.7255,0.9215,0.6135,0.8535,0.883,0.7565,0.761,0.025,-1.126,0.0775
-0.347,-1.898,-1.5505,1.1225,0.6015,-1.7245,0.919,0.612,0.8525,0.8825,0.7595,0.762,0.024,-1.1175,0.086
-0.3455,-1.903,-1.557,1.124,0.6055,-1.73,0.917,0.6105,0.85,0.8815,0.76,0.7625,0.0255,-1.1235,0.0865
-0.351,-1.9065,-1.555,1.129,0.6015,-1.731,0.918,0.6115,0.851,0.8845,0.7605,0.7645,0.0245,-1.1245,0.084
-0.3535,-1.9145,-1.561,1.134,0.6035,-1.738,0.921,0.613,0.854,0.8875,0.765,0.7685,0.0265,-1.134,0.0825
-0.356,-1.9175,-1.561,1.137,0.602,-1.7395,0.9235,0.614,0.8545,0.892,0.768,0.769,0.028,-1.134,0.079
-0.3515,-1.9185,-1.567,1.135,0.6075,-1.743,0.924,0.6175,0.8595,0.897,0.772,0.7715,0.029,-1.137,0.0745
-0.3455,-1.919,-1.5725,1.132,0.6135,-1.746,0.9235,0.6145,0.8595,0.896,0.7715,0.7715,0.029,-1.1475,0.076
-0.3455,-1.9245,-1.5785,1.1355,0.616,-1.752,0.926,0.615,0.856,0.888,0.7665,0.7705,0.0265,-1.1535,0.078
-0.3455,-1.9245,-1.5785,1.1355,0.6165,-1.752,0.926,0.615,0.854,0.8785,0.7605,0.77,0.023,-1.146,0.0835
-0.3415,-1.9145,-1.572,1.128,0.615,-1.7435,0.926,0.6135,0.854,0.879,0.761,0.7705,0.023,-1.134,0.086
-0.3395,-1.918,-1.5775,1.1285,0.6185,-1.748,0.927,0.617,0.8595,0.8885,0.7695,0.7735,0.0265,-1.138,0.0815
-0.344,-1.917,-1.5725,1.1305,0.614,-1.745,0.9235,0.615,0.8585,0.8915,0.7715,0.772,0.0265,-1.131,0.0805
-0.34,-1.9095,-1.5685,1.125,0.614,-1.7395,0.9225,0.615,0.859,0.892,0.772,0.7705,0.03,-1.1305,0.078
-0.3415,-1.9145,-1.5725,1.128,0.615,-1.7435,0.922,0.6145,0.8595,0.8905,0.7715,0.7675,0.031,-1.1405,0.0745
-0.343,-1.915,-1.5715,1.129,0.614,-1.7435,0.924,0.614,0.857,0.8865,0.769,0.7675,0.0275,-1.1425,0.0745
-0.3455,-1.9095,-1.5635,1.1275,0.609,-1.737,0.9245,0.6155,0.8565,0.8825,0.768,0.7685,0.028,-1.1435,0.0755
-0.3515,-1.913,-1.5615,1.1325,0.605,-1.7375,0.9235,0.6145,0.8545,0.881,0.7655,0.7685,0.027,-1.139,0.0785
-0.3525,-1.9195,-1.567,1.136,0.607,-1.7435,0.9235,0.613,0.8545,0.8805,0.7635,0.768,0.0265,-1.141,0.077
-0.35,-1.919,-1.569,1.1345,0.6095,-1.744,0.9235,0.6115,0.853,0.8795,0.7635,0.766,0.025,-1.1435,0.0705
-0.3515,-1.9215,-1.57,1.1365,0.609,-1.746,0.9235,0.61,0.8535,0.879,0.7645,0.7675,0.0225,-1.1465,0.061
-0.353,-1.921,-1.5675,1.137,0.607,-1.7445,0.925,0.614,0.8545,0.8815,0.764,0.768,0.0235,-1.144,0.065
-0.351,-1.914,-1.5625,1.1325,0.6055,-1.7385,0.9245,0.614,0.854,0.8845,0.7655,0.7685,0.0225,-1.1305,0.08
-0.3555,-1.917,-1.5615,1.136,0.603,-1.7395,0.9235,0.6115,0.8525,0.884,0.765,0.7675,0.0195,-1.129,0.0835
-0.353,-1.921,-1.568,1.137,0.607,-1.7445,0.925,0.615,0.85,0.883,0.764,0.7655,0.018,-1.1385,0.08
-0.3495,-1.922,-1.5725,1.1355,0.6115,-1.7475,0.926,0.618,0.8525,0.8825,0.762,0.763,0.018,-1.145,0.0765
-0.346,-1.915,-1.568,1.1305,0.6105,-1.7415,0.9285,0.6185,0.855,0.886,0.7625,0.7645,0.0175,-1.134,0.0765
-0.3385,-1.91,-1.5705,1.124,0.616,-1.7405,0.929,0.619,0.8555,0.885,0.7625,0.7665,0.019,-1.134,0.076
-0.3375,-1.9125,-1.5745,1.125,0.6185,-1.744,0.929,0.621,0.857,0.8855,0.762,0.7685,0.022,-1.141,0.0775
-0.341,-1.915,-1.5735,1.128,0.616,-1.7445,0.926,0.618,0.856,0.886,0.762,0.7685,0.021,-1.139,0.082
-0.341,-1.915,-1.573,1.128,0.6155,-1.744,0.9225,0.6155,0.8555,0.885,0.7615,0.767,0.023,-1.137,0.0825
-0.3415,-1.911,-1.569,1.126,0.6135,-1.74,0.923,0.6155,0.8555,0.885,0.76,0.7665,0.0215,-1.131,0.0825
-0.338,-1.9105,-1.5715,1.124,0.6165,-1.7415,0.9225,0.6145,0.8535,0.882,0.757,0.7625,0.016,-1.1385,0.0815
-0.3325,-1.906,-1.5735,1.119,0.6205,-1.74,0.9265,0.6165,0.8565,0.8845,0.758,0.7665,0.018,-1.1425,0.077
-0.334,-1.9105,-1.576,1.1225,0.6205,-1.7435,0.9275,0.6165,0.8535,0.881,0.7565,0.764,0.018,-1.147,0.0775
-0.3385,-1.9135,-1.574,1.126,0.6175,-1.744,0.9255,0.612,0.847,0.8785,0.7535,0.759,0.0165,-1.1465,0.081
-0.3395,-1.909,-1.569,1.1245,0.6145,-1.739,0.926,0.614,0.851,0.8825,0.758,0.76,0.0205,-1.1415,0.0785
-0.343,-1.909,-1.565,1.126,0.6105,-1.737,0.924,0.615,0.8515,0.8805,0.7595,0.758,0.0235,-1.1435,0.077
-0.3505,-1.906,-1.555,1.128,0.602,-1.731,0.921,0.61,0.849,0.8805,0.7575,0.7585,0.024,-1.1385,0.0785
-0.3485,-1.9045,-1.5555,1.1265,0.6035,-1.7305,0.923,0.612,0.8525,0.8835,0.7595,0.7605,0.023,-1.137,0.0785
-0.3455,-1.901,-1.555,1.123,0.6045,-1.7285,0.925,0.614,0.853,0.885,0.7585,0.763,0.0235,-1.128,0.083
-0.3505,-1.904,-1.553,1.127,0.601,-1.7285,0.9255,0.6155,0.854,0.8855,0.76,0.7645,0.0235,-1.1235,0.086
-0.352,-1.9145,-1.562,1.133,0.605,-1.7385,0.9275,0.616,0.8555,0.8855,0.7615,0.764,0.0235,-1.133,0.082
-0.3555,-1.913,-1.557,1.134,0.6005,-1.7355,0.9285,0.615,0.8535,0.884,0.7595,0.7625,0.0225,-1.134,0.082
-0.3585,-1.907,-1.548,1.133,0.5945,-1.7275,0.9275,0.6125,0.8525,0.8815,0.758,0.762,0.021,-1.1335,0.084
-0.355,-1.9085,-1.553,1.1315,0.599,-1.731,0.9255,0.61,0.8495,0.8815,0.7575,0.7615,0.021,-1.137,0.0865
-0.3525,-1.9115,-1.558,1.132,0.6025,-1.735,0.9245,0.612,0.851,0.8855,0.76,0.762,0.021,-1.138,0.0835
-0.348,-1.9065,-1.5585,1.127,0.605,-1.7325,0.9265,0.613,0.856,0.8935,0.7655,0.763,0.024,-1.136,0.0805
-0.344,-1.907,-1.562,1.125,0.609,-1.7345,0.9265,0.616,0.862,0.9,0.77,0.7645,0.027,-1.136,0.0795
-0.35,-1.9115,-1.561,1.1305,0.6055,-1.7365,0.927,0.615,0.859,0.8925,0.7645,0.7645,0.024,-1.1385,0.08
-0.355,-1.9085,-1.553,1.132,0.599,-1.731,0.9305,0.613,0.8485,0.8785,0.755,0.76,0.0195,-1.135,0.0825
-0.3515,-1.9065,-1.5545,1.129,0.6015,-1.731,0.928,0.613,0.848,0.879,0.753,0.759,0.0185,-1.13,0.0775
-0.351,-1.9045,-1.5525,1.1275,0.6005,-1.7285,0.924,0.61,0.849,0.882,0.7545,0.7575,0.019,-1.1285,0.0755
-0.3535,-1.9085,-1.554,1.131,0.6,-1.7315,0.924,0.61,0.848,0.8815,0.7565,0.7575,0.0185,-1.13,0.0735
-0.347,-1.9115,-1.5635,1.129,0.608,-1.7375,0.9275,0.6135,0.849,0.881,0.758,0.76,0.02,-1.135,0.0775
-0.3465,-1.9075,-1.5605,1.127,0.6065,-1.734,0.9265,0.613,0.849,0.8795,0.758,0.758,0.022,-1.1315,0.081
-0.351,-1.905,-1.5535,1.1275,0.601,-1.7295,0.924,0.611,0.8485,0.8825,0.758,0.7595,0.0215,-1.1275,0.08
-0.3555,-1.903,-1.547,1.129,0.5955,-1.725,0.9245,0.611,0.8485,0.8865,0.7625,0.763,0.0245,-1.1225,0.0835
-0.3545,-1.897,-1.5425,1.126,0.594,-1.72,0.922,0.6085,0.8475,0.885,0.7655,0.762,0.0235,-1.118,0.084
-0.3425,-1.893,-1.55,1.118,0.6035,-1.7215,0.9225,0.6095,0.8485,0.8885,0.767,0.7635,0.0235,-1.1255,0.086
-0.3485,-1.9035,-1.5545,1.126,0.603,-1.729,0.9195,0.6085,0.8485,0.8905,0.765,0.761,0.025,-1.135,0.0835
-0.3495,-1.9035,-1.5535,1.1265,0.6015,-1.7285,0.9185,0.6075,0.85,0.8915,0.765,0.7615,0.026,-1.133,0.0805
-0.338,-1.897,-1.5585,1.1175,0.6095,-1.728,0.9265,0.6165,0.8545,0.893,0.7685,0.7655,0.0275,-1.134,0.0785
-0.3455,-1.9085,-1.562,1.127,0.608,-1.7355,0.928,0.616,0.851,0.8845,0.764,0.7625,0.0245,-1.1405,0.0785
-0.3615,-1.918,-1.556,1.14,0.597,-1.7375,0.9235,0.61,0.843,0.8735,0.7585,0.76,0.021,-1.131,0.0905
-0.3625,-1.918,-1.555,1.1405,0.596,-1.737,0.924,0.6105,0.844,0.874,0.7565,0.758,0.019,-1.127,0.091
-0.3505,-1.918,-1.567,1.134,0.608,-1.7425,0.927,0.615,0.854,0.8885,0.7645,0.76,0.021,-1.1385,0.081
-0.3405,-1.915,-1.5735,1.128,0.616,-1.7445,0.928,0.6185,0.8615,0.8995,0.77,0.763,0.0265,-1.1495,0.078
-0.3435,-1.9165,-1.572,1.13,0.614,-1.7445,0.9275,0.6185,0.858,0.8935,0.7635,0.7585,0.022,-1.149,0.0755
-0.35,-1.9175,-1.567,1.134,0.6085,-1.7425,0.925,0.6145,0.8495,0.882,0.756,0.7535,0.0165,-1.1405,0.0775
-0.3485,-1.918,-1.569,1.133,0.6105,-1.744,0.927,0.6135,0.848,0.881,0.7555,0.752,0.0175,-1.144,0.076
-0.3455,-1.914,-1.5675,1.1295,0.6105,-1.741,0.924,0.614,0.8465,0.8835,0.7585,0.7515,0.019,-1.142,0.0725
-0.344,-1.904,-1.5595,1.124,0.6075,-1.732,0.919,0.6105,0.8455,0.8815,0.756,0.751,0.018,-1.132,0.078
-0.3445,-1.9065,-1.561,1.1255,0.608,-1.734,0.925,0.6115,0.8495,0.879,0.752,0.7505,0.0155,-1.136,0.079
-0.34,-1.908,-1.5675,1.124,0.6135,-1.7375,0.925,0.6115,0.847,0.8755,0.751,0.751,0.015,-1.1445,0.077
-0.3405,-1.9075,-1.5665,1.124,0.6125,-1.737,0.921,0.608,0.8425,0.873,0.751,0.75,0.0125,-1.1455,0.0805
-0.3485,-1.911,-1.562,1.1295,0.6065,-1.7365,0.922,0.6075,0.842,0.878,0.756,0.7495,0.0125,-1.138,0.082
-0.3505,-1.9095,-1.5585,1.13,0.6035,-1.7345,0.9245,0.6115,0.847,0.8835,0.7595,0.7535,0.0155,-1.129,0.0805
-0.3535,-1.9015,-1.5475,1.1275,0.597,-1.725,0.9245,0.6105,0.845,0.88,0.7545,0.7525,0.0155,-1.1225,0.0805
-0.3495,-1.901,-1.551,1.125,0.6005,-1.726,0.925,0.6085,0.8415,0.873,0.7495,0.749,0.0125,-1.129,0.081
-0.343,-1.907,-1.5635,1.1245,0.61,-1.7355,0.9265,0.611,0.8425,0.87,0.75,0.752,0.015,-1.136,0.082
-0.345,-1.916,-1.5705,1.1305,0.6125,-1.7435,0.923,0.609,0.84,0.866,0.746,0.7505,0.017,-1.1475,0.082
-0.3525,-1.919,-1.566,1.136,0.6065,-1.7425,0.9225,0.6085,0.839,0.8665,0.7445,0.7485,0.017,-1.143,0.0815
-0.353,-1.91,-1.557,1.1315,0.6015,-1.7335,0.925,0.61,0.844,0.875,0.749,0.755,0.021,-1.1265,0.084
-0.356,-1.9125,-1.556,1.1345,0.5995,-1.7345,0.924,0.6095,0.843,0.8755,0.7485,0.756,0.0205,-1.128,0.09
-0.35,-1.913,-1.563,1.1315,0.6065,-1.738,0.9245,0.6095,0.843,0.8765,0.752,0.757,0.0215,-1.1345,0.0895
-0.3475,-1.911,-1.563,1.129,0.6075,-1.737,0.9215,0.6075,0.844,0.879,0.754,0.7575,0.021,-1.135,0.081
-0.359,-1.9185,-1.559,1.139,0.5995,-1.739,0.921,0.607,0.8435,0.8805,0.755,0.7575,0.0205,-1.126,0.0765
-0.3535,-1.9285,-1.5745,1.141,0.6105,-1.7515,0.924,0.6085,0.8465,0.8815,0.7565,0.758,0.022,-1.147,0.0715
-0.3515,-1.9275,-1.5755,1.1395,0.612,-1.752,0.9225,0.608,0.8445,0.876,0.7555,0.7595,0.0235,-1.16,0.066
-0.3535,-1.9245,-1.5705,1.139,0.6085,-1.748,0.922,0.6075,0.841,0.873,0.754,0.758,0.023,-1.1515,0.069
-0.355,-1.923,-1.568,1.139,0.6065,-1.746,0.9175,0.604,0.839,0.869,0.7505,0.754,0.018,-1.144,0.073
-0.353,-1.9145,-1.5615,1.134,0.604,-1.7385,0.917,0.605,0.839,0.871,0.7545,0.7565,0.016,-1.13,0.0785
-0.347,-1.9125,-1.565,1.13,0.6085,-1.739,0.9235,0.6065,0.842,0.875,0.759,0.76,0.019,-1.1285,0.0805
-0.34,-1.911,-1.57,1.126,0.6145,-1.741,0.9245,0.6065,0.8435,0.873,0.7585,0.7615,0.019,-1.1335,0.0815
-0.3375,-1.9055,-1.5675,1.1215,0.6145,-1.7365,0.9205,0.603,0.8415,0.872,0.7555,0.759,0.0175,-1.1385,0.08
-0.344,-1.9075,-1.563,1.126,0.609,-1.7355,0.919,0.602,0.84,0.8725,0.756,0.7565,0.0165,-1.1375,0.078
-0.3485,-1.9095,-1.5605,1.129,0.606,-1.7355,0.9205,0.6065,0.8425,0.878,0.761,0.7615,0.0175,-1.1325,0.0815
-0.35,-1.9005,-1.5495,1.1255,0.5995,-1.7255,0.9165,0.605,0.8425,0.8775,0.76,0.763,0.023,-1.122,0.0845
-0.34,-1.8965,-1.556,1.1185,0.608,-1.7265,0.9205,0.6095,0.846,0.884,0.7645,0.7685,0.0255,-1.12,0.0895
-0.3385,-1.9015,-1.562,1.12,0.6115,-1.732,0.9235,0.6135,0.8525,0.893,0.772,0.7735,0.0275,-1.121,0.089
-0.343,-1.899,-1.5555,1.121,0.606,-1.7275,0.919,0.6085,0.847,0.8895,0.7695,0.7675,0.029,-1.1205,0.0885
-0.3395,-1.8935,-1.5535,1.1165,0.6065,-1.724,0.917,0.605,0.8445,0.891,0.77,0.7655,0.031,-1.1315,0.083
-0.3415,-1.8995,-1.5575,1.1205,0.6075,-1.7285,0.917,0.6035,0.846,0.892,0.769,0.763,0.0305,-1.136,0.0755
-0.349,-1.9055,-1.556,1.127,0.6035,-1.731,0.918,0.603,0.8455,0.8915,0.7685,0.761,0.0305,-1.1295,0.0785
-0.348,-1.9085,-1.56,1.128,0.606,-1.7345,0.921,0.604,0.847,0.8905,0.7675,0.7635,0.03,-1.135,0.082
-0.344,-1.9115,-1.5665,1.1275,0.611,-1.739,0.925,0.608,0.848,0.8885,0.765,0.763,0.0235,-1.1405,0.0785
-0.3435,-1.905,-1.561,1.124,0.6085,-1.733,0.9275,0.6115,0.8525,0.8925,0.767,0.7625,0.022,-1.134,0.072
-0.337,-1.9065,-1.569,1.122,0.6155,-1.738,0.9275,0.6145,0.8545,0.8925,0.7665,0.7605,0.0235,-1.141,0.071
-0.3375,-1.9035,-1.565,1.1205,0.6135,-1.7345,0.925,0.6115,0.85,0.886,0.7615,0.7575,0.023,-1.1355,0.0755
-0.337,-1.901,-1.5635,1.119,0.613,-1.7325,0.926,0.6105,0.8475,0.8845,0.7605,0.7595,0.0235,-1.134,0.0765
-0.338,-1.906,-1.567,1.122,0.6145,-1.7365,0.9245,0.61,0.846,0.884,0.759,0.7595,0.023,-1.139,0.0765
-0.335,-1.903,-1.5675,1.119,0.616,-1.7355,0.923,0.607,0.844,0.8825,0.757,0.7595,0.0235,-1.136,0.0765
-0.329,-1.901,-1.571,1.115,0.621,-1.7365,0.925,0.6105,0.8445,0.8815,0.7585,0.76,0.0235,-1.1425,0.0765
-0.325,-1.8925,-1.567,1.109,0.6205,-1.73,0.926,0.611,0.848,0.883,0.76,0.7615,0.024,-1.1395,0.0765
-0.3305,-1.8955,-1.564,1.113,0.6165,-1.73,0.9275,0.6105,0.8485,0.883,0.759,0.7595,0.022,-1.1305,0.076
-0.347,-1.9035,-1.556,1.125,0.6045,-1.73,0.9255,0.61,0.8435,0.8785,0.756,0.757,0.0205,-1.1285,0.0725
-0.347,-1.9045,-1.557,1.1255,0.6045,-1.731,0.922,0.608,0.8415,0.8775,0.7555,0.757,0.022,-1.136,0.073
-0.3505,-1.906,-1.555,1.128,0.602,-1.731,0.917,0.6045,0.837,0.8745,0.7525,0.753,0.0235,-1.1355,0.0825
-0.3435,-1.898,-1.5535,1.121,0.6045,-1.726,0.921,0.6075,0.8405,0.8775,0.7565,0.758,0.024,-1.133,0.083
-0.338,-1.9,-1.561,1.119,0.6115,-1.7305,0.925,0.6125,0.8465,0.882,0.761,0.7615,0.0225,-1.1385,0.0825
-0.3435,-1.9065,-1.562,1.125,0.609,-1.7345,0.919,0.607,0.839,0.8785,0.7565,0.7575,0.0245,-1.138,0.0835
-0.346,-1.908,-1.5615,1.127,0.607,-1.735,0.917,0.6065,0.8405,0.8805,0.757,0.756,0.025,-1.141,0.0785
-0.3505,-1.912,-1.561,1.1315,0.605,-1.7365,0.917,0.6085,0.847,0.8845,0.759,0.757,0.0255,-1.1425,0.0755
-0.3485,-1.9055,-1.5565,1.127,0.6035,-1.7315,0.9185,0.609,0.8475,0.884,0.7575,0.7555,0.0225,-1.135,0.0785
-0.3385,-1.8995,-1.5605,1.119,0.6105,-1.73,0.9225,0.6125,0.849,0.8805,0.7585,0.7595,0.0215,-1.1375,0.0835
-0.329,-1.8955,-1.566,1.112,0.6185,-1.731,0.924,0.612,0.847,0.878,0.7575,0.759,0.0235,-1.1405,0.0825
-0.335,-1.902,-1.5665,1.1185,0.6155,-1.7345,0.925,0.612,0.8455,0.8785,0.754,0.7515,0.0205,-1.1435,0.0775
-0.3385,-1.908,-1.5685,1.123,0.615,-1.7385,0.9265,0.614,0.8465,0.8805,0.7565,0.7535,0.018,-1.143,0.075
-0.34,-1.909,-1.568,1.1245,0.614,-1.739,0.9295,0.6135,0.846,0.8825,0.758,0.7545,0.0165,-1.133,0.079
-0.3425,-1.919,-1.5755,1.131,0.6165,-1.7475,0.926,0.611,0.843,0.8805,0.7555,0.7525,0.0185,-1.1395,0.084
-0.341,-1.9185,-1.577,1.1295,0.618,-1.748,0.9215,0.6075,0.8435,0.881,0.758,0.7515,0.0225,-1.1435,0.0815
-0.3405,-1.9135,-1.5725,1.127,0.6155,-1.743,0.9215,0.6075,0.8475,0.8865,0.759,0.752,0.022,-1.14,0.0795
-0.3385,-1.91,-1.5705,1.1245,0.6155,-1.7405,0.9245,0.613,0.8505,0.8915,0.7625,0.753,0.019,-1.136,0.077
-0.34,-1.91,-1.5695,1.125,0.6145,-1.74,0.926,0.614,0.85,0.8905,0.7615,0.7535,0.0185,-1.1275,0.078
-0.3405,-1.9055,-1.564,1.1235,0.6115,-1.735,0.924,0.611,0.849,0.887,0.758,0.7535,0.019,-1.1225,0.084
-0.3465,-1.9025,-1.5555,1.1245,0.6045,-1.7295,0.9215,0.61,0.849,0.8855,0.76,0.7535,0.021,-1.132,0.0795
-0.3465,-1.905,-1.558,1.126,0.6055,-1.7315,0.918,0.6075,0.8475,0.885,0.758,0.7515,0.0225,-1.1435,0.0715
-0.3475,-1.8985,-1.5505,1.123,0.6015,-1.725,0.9155,0.605,0.845,0.881,0.754,0.7495,0.023,-1.1345,0.068
-0.3515,-1.903,-1.551,1.127,0.5995,-1.7275,0.9165,0.605,0.8425,0.8735,0.749,0.749,0.021,-1.132,0.075
-0.3495,-1.9085,-1.559,1.1285,0.6045,-1.734,0.9215,0.6085,0.843,0.8735,0.7485,0.7485,0.017,-1.137,0.084
-0.3465,-1.8985,-1.551,1.1225,0.602,-1.725,0.9225,0.6105,0.8455,0.876,0.752,0.753,0.018,-1.1195,0.089
-0.3455,-1.891,-1.545,1.1185,0.5995,-1.7185,0.9185,0.609,0.8435,0.8745,0.7535,0.7535,0.0195,-1.1125,0.0935
-0.349,-1.894,-1.5445,1.1215,0.5975,-1.7195,0.916,0.6095,0.844,0.8765,0.7545,0.753,0.0205,-1.126,0.0925
-0.345,-1.892,-1.5465,1.1185,0.6005,-1.7195,0.916,0.61,0.848,0.8805,0.7555,0.7565,0.0255,-1.1315,0.089
-0.342,-1.8895,-1.5465,1.1155,0.602,-1.7185,0.915,0.61,0.849,0.885,0.757,0.7555,0.028,-1.1275,0.0855
-0.3455,-1.894,-1.548,1.12,0.601,-1.721,0.9145,0.6095,0.847,0.884,0.7555,0.7525,0.0245,-1.1245,0.0825
-0.3435,-1.8925,-1.5485,1.118,0.6025,-1.721,0.916,0.6085,0.847,0.8825,0.7535,0.7515,0.0215,-1.1235,0.078
-0.3365,-1.8905,-1.5535,1.1135,0.608,-1.722,0.9195,0.6125,0.852,0.8845,0.7575,0.754,0.0205,-1.1195,0.083
-0.3415,-1.897,-1.555,1.119,0.6065,-1.726,0.918,0.6115,0.85,0.881,0.756,0.752,0.021,-1.1275,0.0835
-0.344,-1.8965,-1.552,1.1205,0.604,-1.7245,0.918,0.609,0.847,0.8775,0.752,0.75,0.0185,-1.1305,0.077
-0.3415,-1.8905,-1.5485,1.116,0.603,-1.7195,0.92,0.61,0.846,0.8775,0.752,0.749,0.017,-1.1245,0.0755
-0.339,-1.89,-1.5505,1.1145,0.6055,-1.7205,0.917,0.608,0.8445,0.8785,0.7525,0.7485,0.018,-1.126,0.0745
-0.3355,-1.8925,-1.5565,1.114,0.61,-1.725,0.9185,0.609,0.847,0.878,0.755,0.7505,0.018,-1.1265,0.0785
-0.3385,-1.895,-1.556,1.117,0.608,-1.7255,0.919,0.6105,0.8485,0.878,0.7545,0.748,0.016,-1.129,0.0805
-0.342,-1.9,-1.5575,1.1215,0.6075,-1.729,0.917,0.608,0.8445,0.876,0.751,0.743,0.013,-1.133,0.0815
-0.347,-1.9045,-1.5575,1.1255,0.605,-1.731,0.915,0.606,0.8375,0.871,0.747,0.741,0.0125,-1.131,0.0875
-0.35,-1.9085,-1.558,1.129,0.604,-1.7335,0.9135,0.606,0.8355,0.871,0.747,0.743,0.012,-1.1345,0.0855
-0.351,-1.914,-1.5625,1.1325,0.6055,-1.7385,0.9115,0.603,0.835,0.867,0.7455,0.7415,0.015,-1.146,0.081
-0.3475,-1.914,-1.566,1.1305,0.6085,-1.74,0.9115,0.602,0.835,0.868,0.745,0.7425,0.0175,-1.1455,0.08
-0.347,-1.9115,-1.564,1.129,0.608,-1.738,0.9145,0.604,0.8405,0.8775,0.7505,0.7475,0.019,-1.1435,0.078
-0.346,-1.907,-1.5605,1.1265,0.607,-1.734,0.9135,0.6045,0.844,0.8805,0.755,0.753,0.0215,-1.1425,0.082
-0.344,-1.9015,-1.557,1.123,0.606,-1.7295,0.9155,0.6065,0.845,0.881,0.758,0.756,0.021,-1.1345,0.089
-0.345,-1.8995,-1.554,1.1225,0.6045,-1.727,0.918,0.6085,0.8455,0.8785,0.758,0.7545,0.019,-1.1325,0.0875
-0.3415,-1.9025,-1.5605,1.122,0.609,-1.7315,0.9185,0.6095,0.845,0.878,0.759,0.7595,0.022,-1.134,0.09
