i,ii,iii,avr,avl,avf,v1,v2,v3,v4,v5,v6,vx,vy,vz
0.0405,-0.3205,-0.3615,0.14,0.201,-0.341,0.1035,0.223,0.1515,-0.011,-0.1555,0.017,-0.132,0.0225,-0.0225
0.0335,-0.3255,-0.359,0.146,0.196,-0.342,0.094,0.209,0.1395,-0.017,-0.155,0.018,-0.1315,0.0195,-0.0145
0.03,-0.3195,-0.3495,0.1445,0.1895,-0.3345,0.083,0.1925,0.123,-0.0265,-0.1595,0.0155,-0.1325,0.028,-0.014
0.0325,-0.3105,-0.343,0.1385,0.1875,-0.3265,0.076,0.181,0.113,-0.0275,-0.1565,0.0195,-0.131,0.0345,-0.0135
0.0325,-0.3055,-0.3375,0.1365,0.185,-0.3215,0.068,0.1645,0.0975,-0.033,-0.158,0.02,-0.133,0.036,-0.013
0.029,-0.299,-0.328,0.135,0.1785,-0.3135,0.0635,0.154,0.086,-0.036,-0.1575,0.023,-0.131,0.038,-0.012
0.0275,-0.296,-0.3235,0.1345,0.176,-0.31,0.0605,0.1385,0.074,-0.042,-0.162,0.023,-0.1335,0.0345,-0.0045
0.03,-0.2935,-0.324,0.132,0.177,-0.309,0.0555,0.1315,0.068,-0.0435,-0.161,0.024,-0.1345,0.037,0.0015
0.0275,-0.2935,-0.3215,0.133,0.1745,-0.3075,0.045,0.1235,0.058,-0.0475,-0.1615,0.0245,-0.134,0.0435,0.0035
0.0205,-0.2965,-0.3175,0.138,0.169,-0.307,0.0345,0.1025,0.043,-0.055,-0.1675,0.021,-0.137,0.047,0.0065
0.0165,-0.2955,-0.312,0.1395,0.1645,-0.304,0.027,0.0875,0.03,-0.06,-0.17,0.018,-0.141,0.047,0.0085
0.0125,-0.291,-0.3035,0.1395,0.158,-0.2975,0.0255,0.077,0.0165,-0.067,-0.173,0.016,-0.146,0.05,0.011
0.013,-0.2915,-0.3045,0.139,0.159,-0.298,0.0235,0.0695,0.01,-0.0705,-0.175,0.016,-0.15,0.0555,0.0165
0.011,-0.297,-0.308,0.143,0.1595,-0.3025,0.015,0.0565,-0.004,-0.077,-0.1815,0.012,-0.155,0.0565,0.021
0.0105,-0.296,-0.307,0.143,0.159,-0.3015,0.007,0.047,-0.014,-0.0805,-0.1825,0.012,-0.156,0.0555,0.026
0.0145,-0.29,-0.3045,0.1375,0.1595,-0.297,0.002,0.0375,-0.0215,-0.0845,-0.183,0.014,-0.157,0.0565,0.0265
0.0125,-0.283,-0.2955,0.135,0.154,-0.2895,-0.001,0.0275,-0.029,-0.0875,-0.181,0.0175,-0.159,0.06,0.0255
0.0125,-0.2775,-0.29,0.1325,0.151,-0.2835,-0.0075,0.016,-0.04,-0.0925,-0.1815,0.017,-0.1615,0.067,0.0265
0.0085,-0.2725,-0.281,0.132,0.1445,-0.2765,-0.0135,0.001,-0.051,-0.0985,-0.187,0.0155,-0.164,0.0715,0.028
0.0025,-0.2665,-0.2695,0.132,0.136,-0.268,-0.02,-0.0065,-0.0555,-0.101,-0.187,0.0165,-0.1655,0.071,0.03
-0.001,-0.265,-0.264,0.133,0.1315,-0.2645,-0.0255,-0.0155,-0.0685,-0.109,-0.19,0.0135,-0.1685,0.077,0.0315
-0.0015,-0.2595,-0.2585,0.1305,0.1285,-0.259,-0.0275,-0.023,-0.0755,-0.1115,-0.1915,0.0125,-0.17,0.086,0.034
-0.0005,-0.251,-0.2505,0.126,0.1255,-0.2505,-0.033,-0.032,-0.0835,-0.115,-0.193,0.0115,-0.1705,0.0935,0.034
-0.0025,-0.2475,-0.245,0.125,0.1215,-0.246,-0.0405,-0.0445,-0.0955,-0.122,-0.197,0.009,-0.173,0.0995,0.0335
-0.007,-0.244,-0.237,0.1255,0.1155,-0.2405,-0.043,-0.0515,-0.102,-0.1235,-0.1985,0.01,-0.174,0.1035,0.034
-0.01,-0.2375,-0.227,0.1235,0.109,-0.232,-0.05,-0.0625,-0.111,-0.1285,-0.2005,0.0125,-0.174,0.11,0.038
-0.0085,-0.2345,-0.226,0.1215,0.109,-0.23,-0.055,-0.071,-0.118,-0.132,-0.201,0.0115,-0.1765,0.1115,0.041
-0.012,-0.236,-0.2235,0.124,0.106,-0.23,-0.0545,-0.0765,-0.12,-0.1305,-0.1985,0.014,-0.177,0.111,0.0425
-0.0155,-0.235,-0.2195,0.1255,0.1025,-0.2275,-0.059,-0.0825,-0.1245,-0.1335,-0.2,0.015,-0.1795,0.116,0.0465
-0.0125,-0.2335,-0.221,0.123,0.105,-0.227,-0.064,-0.0875,-0.134,-0.139,-0.2035,0.012,-0.1825,0.115,0.05
-0.012,-0.229,-0.217,0.1205,0.103,-0.223,-0.07,-0.095,-0.141,-0.1395,-0.203,0.014,-0.181,0.113,0.051
-0.017,-0.2305,-0.214,0.124,0.099,-0.222,-0.0755,-0.1025,-0.147,-0.1435,-0.202,0.016,-0.1815,0.1145,0.053
-0.0215,-0.2365,-0.215,0.129,0.0975,-0.2255,-0.0775,-0.1075,-0.1535,-0.1465,-0.202,0.013,-0.1855,0.116,0.0545
-0.026,-0.24,-0.214,0.133,0.0945,-0.227,-0.0805,-0.113,-0.1575,-0.1455,-0.202,0.0145,-0.1875,0.1145,0.057
-0.0255,-0.2415,-0.2155,0.1335,0.0955,-0.2285,-0.0825,-0.115,-0.1585,-0.1455,-0.2005,0.0195,-0.185,0.1145,0.0615
-0.0245,-0.238,-0.2135,0.1315,0.095,-0.226,-0.086,-0.1245,-0.167,-0.151,-0.205,0.0175,-0.187,0.118,0.063
-0.0215,-0.231,-0.2095,0.1265,0.0945,-0.22,-0.0925,-0.1345,-0.1755,-0.1555,-0.209,0.0145,-0.1905,0.117,0.063
-0.0225,-0.2225,-0.2005,0.1225,0.0895,-0.2115,-0.0975,-0.137,-0.1795,-0.1565,-0.2085,0.0135,-0.1925,0.1245,0.0615
-0.03,-0.2205,-0.1905,0.1255,0.0805,-0.2055,-0.0995,-0.14,-0.184,-0.158,-0.2085,0.0135,-0.1925,0.1345,0.061
-0.029,-0.215,-0.1855,0.122,0.0785,-0.2005,-0.1025,-0.1495,-0.1905,-0.16,-0.208,0.0145,-0.1935,0.1355,0.061
-0.0275,-0.2115,-0.1835,0.1195,0.0785,-0.1975,-0.1055,-0.156,-0.195,-0.1605,-0.2095,0.0135,-0.194,0.138,0.0625
-0.026,-0.209,-0.183,0.1175,0.079,-0.196,-0.1085,-0.1555,-0.1965,-0.1595,-0.2075,0.015,-0.1925,0.143,0.0625
-0.0305,-0.203,-0.1725,0.117,0.0715,-0.188,-0.114,-0.168,-0.2055,-0.1645,-0.209,0.014,-0.1935,0.1475,0.061
-0.029,-0.196,-0.167,0.1125,0.0695,-0.1815,-0.1145,-0.168,-0.207,-0.163,-0.209,0.014,-0.196,0.1525,0.058
-0.021,-0.1885,-0.1675,0.1045,0.074,-0.178,-0.1155,-0.1715,-0.21,-0.163,-0.2075,0.0145,-0.197,0.155,0.0585
-0.023,-0.184,-0.1605,0.1035,0.069,-0.172,-0.1205,-0.1815,-0.218,-0.1695,-0.213,0.012,-0.199,0.158,0.061
-0.0275,-0.182,-0.1545,0.1045,0.064,-0.168,-0.1195,-0.1825,-0.22,-0.171,-0.214,0.0115,-0.2015,0.161,0.063
-0.0285,-0.1835,-0.1545,0.106,0.0635,-0.169,-0.119,-0.186,-0.2235,-0.1725,-0.214,0.0125,-0.2025,0.164,0.0655
-0.0245,-0.182,-0.1575,0.103,0.067,-0.1695,-0.1225,-0.1885,-0.228,-0.1765,-0.215,0.012,-0.204,0.166,0.0685
-0.027,-0.1875,-0.16,0.1075,0.067,-0.174,-0.1235,-0.1975,-0.237,-0.1855,-0.2225,0.0065,-0.209,0.16,0.0705
-0.035,-0.1885,-0.1535,0.112,0.0595,-0.171,-0.1245,-0.203,-0.239,-0.19,-0.226,0.0055,-0.2115,0.163,0.0675
-0.0305,-0.1795,-0.149,0.105,0.06,-0.164,-0.126,-0.2075,-0.243,-0.191,-0.2255,0.007,-0.2115,0.174,0.066
-0.0295,-0.1845,-0.155,0.107,0.063,-0.1695,-0.1275,-0.208,-0.248,-0.193,-0.2285,0.0045,-0.2145,0.1705,0.071
-0.035,-0.1935,-0.159,0.1145,0.0625,-0.1765,-0.129,-0.208,-0.2445,-0.192,-0.2275,0.0055,-0.217,0.16,0.0755
-0.036,-0.196,-0.16,0.116,0.0625,-0.178,-0.128,-0.209,-0.246,-0.1925,-0.225,0.006,-0.219,0.161,0.0755
-0.0445,-0.197,-0.1525,0.121,0.0545,-0.1745,-0.1305,-0.214,-0.2515,-0.196,-0.2265,0.003,-0.222,0.1675,0.0745
-0.047,-0.1925,-0.1455,0.12,0.0495,-0.169,-0.134,-0.2185,-0.256,-0.1975,-0.228,0.0015,-0.2235,0.175,0.0725
-0.043,-0.1855,-0.1425,0.114,0.0505,-0.164,-0.134,-0.2195,-0.2585,-0.197,-0.2305,0.0005,-0.2235,0.1755,0.07
-0.0415,-0.1805,-0.1385,0.111,0.049,-0.1595,-0.1375,-0.226,-0.262,-0.2,-0.235,-0.0045,-0.2265,0.1755,0.07
-0.0445,-0.18,-0.1355,0.112,0.046,-0.1575,-0.1415,-0.228,-0.266,-0.202,-0.2365,-0.0085,-0.2295,0.1845,0.0715
-0.038,-0.1775,-0.1395,0.1075,0.051,-0.158,-0.1455,-0.2365,-0.2685,-0.202,-0.235,-0.0065,-0.228,0.182,0.074
-0.0325,-0.1715,-0.139,0.102,0.054,-0.155,-0.1455,-0.239,-0.2695,-0.2015,-0.233,-0.0035,-0.227,0.181,0.0735
-0.0365,-0.164,-0.1275,0.1005,0.046,-0.146,-0.147,-0.236,-0.2705,-0.2015,-0.233,-0.0045,-0.229,0.1885,0.068
-0.0355,-0.1575,-0.1225,0.0965,0.044,-0.14,-0.1505,-0.243,-0.274,-0.205,-0.236,-0.004,-0.2285,0.196,0.068
-0.039,-0.155,-0.116,0.097,0.039,-0.1355,-0.1485,-0.2395,-0.2745,-0.2065,-0.2355,-0.003,-0.2295,0.2,0.0685
-0.043,-0.154,-0.1115,0.0985,0.035,-0.1325,-0.1515,-0.2425,-0.2785,-0.2095,-0.2375,-0.0055,-0.2315,0.1985,0.0665
-0.0455,-0.1585,-0.113,0.102,0.0345,-0.136,-0.156,-0.249,-0.284,-0.2125,-0.241,-0.007,-0.231,0.195,0.069
-0.0495,-0.164,-0.1145,0.107,0.033,-0.139,-0.158,-0.252,-0.2855,-0.214,-0.242,-0.009,-0.2325,0.1955,0.0725
-0.053,-0.168,-0.115,0.1105,0.031,-0.1415,-0.159,-0.258,-0.2885,-0.2155,-0.243,-0.0095,-0.2345,0.1935,0.0755
-0.0585,-0.1675,-0.1085,0.113,0.0255,-0.138,-0.157,-0.2545,-0.2875,-0.213,-0.2415,-0.0075,-0.235,0.194,0.076
-0.056,-0.1605,-0.1045,0.108,0.025,-0.1325,-0.1565,-0.2535,-0.2865,-0.2115,-0.2405,-0.008,-0.235,0.1965,0.0725
-0.047,-0.155,-0.108,0.101,0.031,-0.1315,-0.1615,-0.256,-0.29,-0.212,-0.2395,-0.009,-0.2345,0.196,0.0735
-0.046,-0.16,-0.114,0.103,0.0345,-0.137,-0.1625,-0.2585,-0.292,-0.2125,-0.238,-0.0075,-0.2345,0.1935,0.077
-0.051,-0.1685,-0.1175,0.1095,0.0335,-0.1425,-0.159,-0.259,-0.2925,-0.2115,-0.237,-0.0055,-0.2345,0.1905,0.0805
-0.049,-0.172,-0.1225,0.1105,0.037,-0.147,-0.164,-0.2605,-0.293,-0.2125,-0.2375,-0.006,-0.234,0.1895,0.0835
-0.0525,-0.1735,-0.121,0.113,0.0345,-0.147,-0.1675,-0.264,-0.293,-0.213,-0.237,-0.003,-0.2335,0.1895,0.0815
-0.0545,-0.1695,-0.1155,0.112,0.031,-0.1425,-0.1705,-0.2675,-0.2985,-0.215,-0.2365,-0.0015,-0.2325,0.1935,0.0815
-0.0475,-0.1605,-0.113,0.104,0.033,-0.137,-0.1695,-0.264,-0.298,-0.214,-0.2365,-0.0005,-0.229,0.2005,0.081
-0.0435,-0.1505,-0.107,0.097,0.032,-0.129,-0.167,-0.2635,-0.2965,-0.2135,-0.2355,0.0015,-0.23,0.2065,0.08
-0.0385,-0.148,-0.1095,0.0935,0.036,-0.129,-0.17,-0.266,-0.3015,-0.2185,-0.239,-0.0005,-0.2325,0.206,0.0815
-0.042,-0.1515,-0.1095,0.097,0.034,-0.1305,-0.171,-0.27,-0.3045,-0.222,-0.2435,-0.0005,-0.233,0.2025,0.0845
-0.047,-0.153,-0.106,0.1,0.03,-0.1295,-0.175,-0.2755,-0.3075,-0.224,-0.242,0.0015,-0.232,0.1985,0.084
-0.0485,-0.1505,-0.1015,0.0995,0.027,-0.126,-0.173,-0.2715,-0.307,-0.222,-0.239,0.0035,-0.23,0.209,0.079
-0.048,-0.142,-0.0935,0.095,0.023,-0.118,-0.177,-0.274,-0.308,-0.2205,-0.239,0.005,-0.229,0.214,0.077
-0.0395,-0.136,-0.0965,0.0875,0.029,-0.116,-0.1775,-0.277,-0.3065,-0.2155,-0.2335,0.01,-0.225,0.212,0.0765
-0.04,-0.1335,-0.0935,0.0865,0.0275,-0.1135,-0.177,-0.2765,-0.3065,-0.2135,-0.2335,0.01,-0.2255,0.2185,0.076
-0.046,-0.1365,-0.0905,0.091,0.0225,-0.1135,-0.1815,-0.278,-0.3075,-0.2145,-0.2375,0.007,-0.227,0.2155,0.079
-0.05,-0.142,-0.092,0.096,0.021,-0.117,-0.1745,-0.274,-0.304,-0.2135,-0.236,0.0075,-0.229,0.2135,0.081
-0.053,-0.143,-0.0895,0.098,0.019,-0.116,-0.175,-0.277,-0.3075,-0.2155,-0.2385,0.005,-0.2325,0.2125,0.0825
-0.052,-0.1455,-0.0935,0.099,0.021,-0.1195,-0.1765,-0.2805,-0.3085,-0.2195,-0.242,0.003,-0.2325,0.2125,0.0845
-0.052,-0.1475,-0.0955,0.0995,0.0225,-0.1215,-0.1745,-0.283,-0.313,-0.224,-0.2445,0.001,-0.234,0.216,0.084
-0.053,-0.146,-0.0925,0.0995,0.02,-0.119,-0.171,-0.2825,-0.3155,-0.2255,-0.244,0.002,-0.235,0.215,0.0855
-0.055,-0.1525,-0.098,0.104,0.022,-0.1255,-0.1695,-0.2845,-0.3165,-0.226,-0.244,0.001,-0.236,0.2045,0.09
-0.0555,-0.1615,-0.1055,0.1085,0.0255,-0.1335,-0.172,-0.29,-0.32,-0.2275,-0.2455,0.0,-0.2375,0.1975,0.0935
-0.054,-0.1635,-0.1095,0.1085,0.0285,-0.1365,-0.1675,-0.282,-0.314,-0.2245,-0.2425,0.0005,-0.2385,0.199,0.092
-0.052,-0.167,-0.1155,0.1095,0.032,-0.141,-0.17,-0.285,-0.316,-0.226,-0.243,0.0,-0.238,0.1955,0.0935
-0.053,-0.167,-0.114,0.11,0.031,-0.1405,-0.174,-0.2875,-0.317,-0.225,-0.2405,0.0035,-0.2345,0.202,0.0955
-0.051,-0.16,-0.109,0.1055,0.0295,-0.1345,-0.1745,-0.283,-0.314,-0.2205,-0.2365,0.005,-0.2345,0.2045,0.094
-0.057,-0.156,-0.099,0.1065,0.0215,-0.1275,-0.176,-0.2885,-0.3155,-0.221,-0.2375,0.006,-0.236,0.2055,0.092
-0.0625,-0.157,-0.095,0.1095,0.0165,-0.126,-0.1735,-0.286,-0.314,-0.2175,-0.235,0.0075,-0.2355,0.208,0.0895
-0.0555,-0.158,-0.103,0.107,0.0245,-0.1305,-0.1755,-0.289,-0.316,-0.2205,-0.2375,0.0035,-0.2355,0.2045,0.0925
-0.052,-0.156,-0.104,0.1045,0.0265,-0.13,-0.179,-0.2915,-0.3175,-0.224,-0.241,0.0005,-0.2375,0.208,0.093
-0.0515,-0.151,-0.0995,0.1015,0.0245,-0.1255,-0.1805,-0.295,-0.3205,-0.223,-0.24,0.001,-0.2365,0.2145,0.0915
-0.0545,-0.144,-0.0895,0.099,0.018,-0.1165,-0.1815,-0.3005,-0.3235,-0.226,-0.242,0.0005,-0.237,0.2185,0.0885
-0.059,-0.1415,-0.0825,0.1,0.0125,-0.112,-0.181,-0.2965,-0.323,-0.226,-0.242,0.001,-0.239,0.2185,0.084
-0.0595,-0.1415,-0.082,0.1005,0.012,-0.1115,-0.182,-0.294,-0.3235,-0.228,-0.242,0.002,-0.2395,0.216,0.086
-0.066,-0.142,-0.0755,0.104,0.005,-0.1085,-0.1845,-0.295,-0.3235,-0.229,-0.2435,0.0015,-0.2405,0.2205,0.088
-0.07,-0.15,-0.08,0.11,0.0055,-0.115,-0.1875,-0.299,-0.3255,-0.2325,-0.2475,0.0005,-0.241,0.219,0.0925
-0.067,-0.1555,-0.089,0.1115,0.0115,-0.1225,-0.1905,-0.3025,-0.3285,-0.2365,-0.2505,-0.0035,-0.2445,0.2095,0.093
-0.0665,-0.1575,-0.0915,0.112,0.013,-0.1245,-0.1935,-0.305,-0.3305,-0.2375,-0.2495,-0.004,-0.243,0.2075,0.0925
-0.0615,-0.1555,-0.094,0.109,0.017,-0.125,-0.1945,-0.306,-0.332,-0.238,-0.249,-0.0025,-0.239,0.2085,0.0935
-0.06,-0.154,-0.0945,0.1075,0.0175,-0.1245,-0.195,-0.3075,-0.3345,-0.24,-0.2495,-0.0035,-0.24,0.208,0.0935
-0.0595,-0.158,-0.099,0.109,0.02,-0.1285,-0.195,-0.3115,-0.3365,-0.243,-0.2525,-0.0055,-0.2425,0.2035,0.099
-0.061,-0.166,-0.105,0.1135,0.0225,-0.1355,-0.195,-0.3125,-0.3385,-0.244,-0.2555,-0.008,-0.2455,0.201,0.101
-0.066,-0.174,-0.108,0.12,0.0215,-0.141,-0.1945,-0.3155,-0.3405,-0.244,-0.255,-0.006,-0.2455,0.202,0.1035
-0.061,-0.1705,-0.1095,0.1155,0.025,-0.1405,-0.1935,-0.3165,-0.341,-0.244,-0.2535,-0.003,-0.246,0.199,0.106
-0.0585,-0.167,-0.108,0.1125,0.0255,-0.1375,-0.1935,-0.32,-0.3435,-0.2455,-0.2525,-0.004,-0.246,0.197,0.105
-0.057,-0.1615,-0.1045,0.1095,0.0245,-0.133,-0.1945,-0.3195,-0.3435,-0.2455,-0.253,-0.0025,-0.246,0.203,0.104
-0.057,-0.157,-0.1,0.107,0.022,-0.1285,-0.198,-0.321,-0.3435,-0.247,-0.257,-0.002,-0.244,0.2055,0.1035
-0.0535,-0.1515,-0.098,0.1025,0.0225,-0.1245,-0.1995,-0.3235,-0.345,-0.248,-0.258,-0.001,-0.241,0.2055,0.104
-0.048,-0.1495,-0.1015,0.0985,0.0275,-0.1255,-0.203,-0.323,-0.3465,-0.25,-0.26,-0.0025,-0.244,0.207,0.1055
-0.051,-0.1565,-0.1055,0.104,0.0275,-0.131,-0.207,-0.3295,-0.3515,-0.255,-0.2665,-0.01,-0.2465,0.2055,0.108
-0.055,-0.1555,-0.1005,0.105,0.0235,-0.128,-0.21,-0.332,-0.354,-0.2575,-0.2675,-0.011,-0.2465,0.213,0.105
-0.0555,-0.146,-0.0905,0.1005,0.018,-0.118,-0.208,-0.3325,-0.35,-0.255,-0.2635,-0.0075,-0.246,0.2205,0.099
-0.057,-0.1395,-0.0825,0.098,0.013,-0.111,-0.2045,-0.3245,-0.35,-0.2495,-0.2605,-0.003,-0.2445,0.2195,0.096
-0.0545,-0.1425,-0.088,0.098,0.017,-0.115,-0.205,-0.3255,-0.3535,-0.253,-0.2625,-0.0055,-0.246,0.2115,0.099
-0.0495,-0.1425,-0.093,0.096,0.022,-0.1175,-0.2065,-0.334,-0.352,-0.2535,-0.264,-0.0075,-0.2465,0.2125,0.1015
-0.049,-0.146,-0.097,0.0975,0.0245,-0.1215,-0.2125,-0.335,-0.3515,-0.253,-0.2645,-0.009,-0.248,0.21,0.1035
-0.0525,-0.1545,-0.102,0.1035,0.0255,-0.1285,-0.2155,-0.3395,-0.3565,-0.258,-0.2685,-0.012,-0.2475,0.2075,0.106
-0.0605,-0.1585,-0.0985,0.1095,0.0195,-0.1285,-0.211,-0.3345,-0.354,-0.2555,-0.2655,-0.0095,-0.247,0.215,0.104
-0.064,-0.159,-0.095,0.1115,0.016,-0.127,-0.2095,-0.337,-0.355,-0.257,-0.264,-0.0105,-0.2495,0.2095,0.103
-0.0625,-0.1565,-0.094,0.1095,0.016,-0.125,-0.2115,-0.3405,-0.36,-0.2595,-0.2645,-0.01,-0.248,0.2105,0.1055
-0.0595,-0.16,-0.1005,0.11,0.021,-0.1305,-0.213,-0.343,-0.3595,-0.258,-0.264,-0.012,-0.2485,0.2025,0.1095
-0.0625,-0.168,-0.1055,0.115,0.022,-0.137,-0.2125,-0.343,-0.36,-0.258,-0.264,-0.0135,-0.2495,0.194,0.112
-0.067,-0.174,-0.107,0.1205,0.0205,-0.1405,-0.2095,-0.342,-0.3645,-0.259,-0.263,-0.0125,-0.2485,0.196,0.1135
-0.064,-0.1745,-0.11,0.1195,0.0235,-0.1425,-0.212,-0.346,-0.3635,-0.2595,-0.2645,-0.0125,-0.2475,0.1955,0.1155
-0.059,-0.168,-0.109,0.1135,0.0255,-0.139,-0.2135,-0.3425,-0.361,-0.2555,-0.263,-0.0095,-0.247,0.1975,0.113
-0.0595,-0.164,-0.105,0.1115,0.0235,-0.1345,-0.2165,-0.3465,-0.3655,-0.2555,-0.262,-0.0105,-0.248,0.1905,0.1105
-0.063,-0.1625,-0.0995,0.113,0.019,-0.131,-0.218,-0.349,-0.3685,-0.2595,-0.2645,-0.011,-0.248,0.195,0.1115
-0.063,-0.1595,-0.097,0.1115,0.0175,-0.1285,-0.216,-0.348,-0.369,-0.2595,-0.265,-0.011,-0.248,0.2005,0.11
-0.0615,-0.1615,-0.1,0.1115,0.0195,-0.131,-0.2185,-0.3495,-0.369,-0.2595,-0.2635,-0.009,-0.246,0.2025,0.11
-0.0585,-0.163,-0.1045,0.1105,0.0235,-0.134,-0.221,-0.3505,-0.371,-0.259,-0.262,-0.007,-0.2455,0.209,0.113
-0.0585,-0.1595,-0.101,0.109,0.0215,-0.13,-0.2265,-0.3555,-0.3755,-0.2615,-0.265,-0.009,-0.2455,0.2115,0.114
-0.0645,-0.157,-0.093,0.111,0.015,-0.125,-0.228,-0.356,-0.378,-0.263,-0.2675,-0.011,-0.247,0.2115,0.1115
-0.071,-0.158,-0.087,0.1145,0.0085,-0.123,-0.2265,-0.3575,-0.3805,-0.264,-0.272,-0.0135,-0.25,0.2105,0.109
-0.0705,-0.158,-0.0875,0.114,0.009,-0.1225,-0.2245,-0.358,-0.378,-0.2655,-0.2735,-0.014,-0.252,0.212,0.109
-0.0615,-0.154,-0.0925,0.1075,0.016,-0.123,-0.2215,-0.356,-0.3775,-0.267,-0.2695,-0.011,-0.2505,0.2085,0.111
-0.063,-0.1595,-0.0965,0.1115,0.017,-0.128,-0.2265,-0.362,-0.382,-0.272,-0.2715,-0.0125,-0.251,0.205,0.1145
-0.0685,-0.1665,-0.098,0.1175,0.015,-0.132,-0.2275,-0.364,-0.3825,-0.273,-0.273,-0.014,-0.253,0.205,0.1155
-0.067,-0.1675,-0.1005,0.1175,0.017,-0.134,-0.2265,-0.364,-0.3835,-0.274,-0.275,-0.0155,-0.2535,0.2065,0.1155
-0.0705,-0.1695,-0.099,0.12,0.0145,-0.134,-0.227,-0.3645,-0.382,-0.2745,-0.2755,-0.016,-0.2525,0.211,0.116
-0.0725,-0.1715,-0.099,0.122,0.014,-0.1355,-0.23,-0.368,-0.387,-0.2765,-0.276,-0.0185,-0.254,0.2115,0.117
-0.0725,-0.178,-0.105,0.125,0.017,-0.1415,-0.231,-0.3695,-0.3925,-0.2785,-0.277,-0.021,-0.2565,0.2055,0.1205
-0.078,-0.1855,-0.1075,0.132,0.015,-0.1465,-0.228,-0.366,-0.391,-0.278,-0.275,-0.0185,-0.2555,0.199,0.124
-0.085,-0.193,-0.108,0.139,0.012,-0.1505,-0.2325,-0.367,-0.391,-0.277,-0.275,-0.019,-0.2555,0.2,0.1265
-0.086,-0.1945,-0.109,0.1405,0.012,-0.152,-0.234,-0.3685,-0.3915,-0.2775,-0.2755,-0.02,-0.256,0.198,0.1285
-0.0805,-0.19,-0.1095,0.135,0.015,-0.15,-0.2335,-0.373,-0.3945,-0.2795,-0.274,-0.019,-0.255,0.1945,0.13
-0.071,-0.1805,-0.109,0.1255,0.0195,-0.1445,-0.2355,-0.3725,-0.3925,-0.2775,-0.273,-0.019,-0.255,0.201,0.1275
-0.0645,-0.17,-0.1055,0.1175,0.021,-0.138,-0.235,-0.372,-0.392,-0.2735,-0.274,-0.0195,-0.2545,0.2095,0.1215
-0.0675,-0.17,-0.1025,0.119,0.018,-0.1365,-0.238,-0.3755,-0.3955,-0.274,-0.278,-0.0215,-0.2555,0.216,0.121
-0.066,-0.1725,-0.1065,0.119,0.021,-0.1395,-0.24,-0.3825,-0.3985,-0.2795,-0.2825,-0.026,-0.2615,0.211,0.1225
-0.0665,-0.1695,-0.103,0.118,0.019,-0.136,-0.2345,-0.3845,-0.3995,-0.281,-0.2815,-0.0245,-0.2645,0.206,0.124
-0.069,-0.1655,-0.0965,0.1175,0.0145,-0.131,-0.233,-0.3795,-0.398,-0.282,-0.28,-0.0235,-0.263,0.21,0.1215
-0.065,-0.1575,-0.0925,0.111,0.0145,-0.125,-0.239,-0.383,-0.4015,-0.285,-0.2795,-0.023,-0.2625,0.212,0.1165
-0.064,-0.15,-0.086,0.107,0.0115,-0.118,-0.24,-0.381,-0.401,-0.2845,-0.28,-0.0225,-0.264,0.221,0.113
-0.0635,-0.151,-0.0875,0.1075,0.0125,-0.1195,-0.238,-0.381,-0.401,-0.2855,-0.2805,-0.0245,-0.2655,0.2195,0.1115
-0.0655,-0.157,-0.092,0.1115,0.0135,-0.1245,-0.241,-0.3855,-0.405,-0.289,-0.282,-0.025,-0.2645,0.212,0.1145
-0.064,-0.161,-0.0975,0.1125,0.0175,-0.1295,-0.2455,-0.387,-0.4075,-0.2935,-0.288,-0.031,-0.2665,0.215,0.12
-0.0655,-0.167,-0.1015,0.1165,0.0185,-0.1345,-0.247,-0.3915,-0.4115,-0.296,-0.29,-0.033,-0.267,0.2115,0.125
-0.0715,-0.171,-0.0995,0.1215,0.0145,-0.1355,-0.246,-0.392,-0.413,-0.2955,-0.2895,-0.033,-0.267,0.203,0.126
-0.0725,-0.1715,-0.099,0.122,0.0135,-0.1355,-0.2485,-0.393,-0.4145,-0.2965,-0.2915,-0.033,-0.267,0.2015,0.1265
-0.0675,-0.1665,-0.0985,0.117,0.016,-0.1325,-0.25,-0.393,-0.4125,-0.292,-0.2875,-0.0265,-0.262,0.204,0.1265
-0.057,-0.161,-0.104,0.109,0.024,-0.133,-0.246,-0.387,-0.4065,-0.285,-0.281,-0.0215,-0.26,0.2,0.1255
-0.0575,-0.168,-0.11,0.1125,0.027,-0.139,-0.244,-0.3855,-0.4035,-0.283,-0.2825,-0.0215,-0.26,0.1975,0.128
-0.066,-0.178,-0.112,0.122,0.0235,-0.145,-0.25,-0.3885,-0.4065,-0.2845,-0.2835,-0.0245,-0.259,0.196,0.132
-0.0705,-0.183,-0.112,0.127,0.021,-0.1475,-0.252,-0.393,-0.4105,-0.2895,-0.2855,-0.026,-0.2605,0.198,0.1345
-0.07,-0.1785,-0.1085,0.124,0.0195,-0.1435,-0.251,-0.389,-0.4105,-0.29,-0.285,-0.025,-0.26,0.2025,0.1335
-0.0685,-0.171,-0.102,0.12,0.0175,-0.1365,-0.253,-0.3885,-0.411,-0.29,-0.281,-0.025,-0.2585,0.203,0.131
-0.0695,-0.1685,-0.099,0.1195,0.015,-0.1335,-0.2575,-0.3935,-0.4145,-0.293,-0.2835,-0.0275,-0.26,0.205,0.1305
-0.069,-0.1655,-0.096,0.1175,0.014,-0.131,-0.2605,-0.393,-0.4175,-0.296,-0.285,-0.028,-0.261,0.209,0.1315
-0.0685,-0.1625,-0.094,0.1155,0.0135,-0.128,-0.26,-0.3945,-0.4175,-0.2995,-0.285,-0.0285,-0.26,0.213,0.133
-0.0705,-0.1695,-0.099,0.12,0.015,-0.134,-0.2615,-0.3945,-0.4165,-0.298,-0.2825,-0.0255,-0.259,0.2145,0.134
-0.072,-0.1655,-0.0935,0.119,0.0115,-0.1295,-0.2595,-0.3925,-0.417,-0.2975,-0.2815,-0.0255,-0.2585,0.219,0.13
-0.072,-0.161,-0.0885,0.1165,0.009,-0.125,-0.262,-0.404,-0.4225,-0.3005,-0.285,-0.028,-0.256,0.2175,0.126
-0.075,-0.1595,-0.0845,0.1175,0.005,-0.122,-0.265,-0.4085,-0.4225,-0.2985,-0.285,-0.0265,-0.255,0.2185,0.123
-0.0785,-0.1565,-0.078,0.1175,0.0005,-0.1175,-0.257,-0.398,-0.419,-0.2955,-0.284,-0.026,-0.256,0.22,0.1225
-0.0825,-0.1605,-0.078,0.1215,-0.002,-0.119,-0.249,-0.396,-0.4155,-0.2915,-0.282,-0.021,-0.2545,0.2185,0.125
-0.0805,-0.1595,-0.0795,0.12,0.0,-0.1195,-0.247,-0.398,-0.416,-0.2915,-0.2815,-0.0205,-0.253,0.2195,0.131
-0.0795,-0.163,-0.0835,0.121,0.0025,-0.1235,-0.247,-0.399,-0.4185,-0.2955,-0.2855,-0.021,-0.2545,0.213,0.1355
-0.0805,-0.1645,-0.0845,0.1225,0.0025,-0.1245,-0.248,-0.4,-0.4175,-0.2965,-0.2855,-0.021,-0.2545,0.212,0.136
-0.0815,-0.165,-0.0835,0.123,0.002,-0.1245,-0.251,-0.4,-0.4245,-0.3005,-0.2865,-0.0225,-0.255,0.216,0.1355
-0.081,-0.166,-0.085,0.1235,0.0025,-0.1255,-0.2545,-0.405,-0.427,-0.3045,-0.289,-0.023,-0.2565,0.218,0.135
-0.0695,-0.165,-0.0955,0.1175,0.013,-0.13,-0.2565,-0.407,-0.4285,-0.3045,-0.2885,-0.023,-0.256,0.208,0.138
-0.065,-0.1685,-0.1035,0.1165,0.02,-0.136,-0.255,-0.401,-0.4265,-0.301,-0.287,-0.02,-0.255,0.198,0.1405
-0.069,-0.172,-0.103,0.1205,0.0175,-0.1375,-0.255,-0.3995,-0.424,-0.3005,-0.2865,-0.0205,-0.256,0.201,0.1415
-0.076,-0.1755,-0.099,0.1255,0.012,-0.1375,-0.2535,-0.399,-0.424,-0.3,-0.2865,-0.0215,-0.2585,0.205,0.1405
-0.0825,-0.176,-0.093,0.129,0.006,-0.1345,-0.2565,-0.404,-0.4275,-0.305,-0.289,-0.0215,-0.2585,0.2065,0.1415
-0.0805,-0.1685,-0.0885,0.1245,0.0045,-0.1285,-0.2595,-0.4075,-0.4325,-0.309,-0.2955,-0.025,-0.261,0.207,0.142
-0.075,-0.1625,-0.0875,0.119,0.007,-0.125,-0.258,-0.405,-0.433,-0.311,-0.297,-0.029,-0.263,0.2085,0.142
-0.08,-0.1605,-0.0805,0.1205,0.001,-0.1205,-0.2605,-0.4095,-0.437,-0.313,-0.2985,-0.0305,-0.263,0.211,0.1415
-0.085,-0.158,-0.074,0.1215,-0.0055,-0.116,-0.261,-0.409,-0.4375,-0.3105,-0.298,-0.0315,-0.264,0.216,0.138
-0.081,-0.1615,-0.0805,0.1215,0.0,-0.121,-0.261,-0.411,-0.439,-0.315,-0.3005,-0.036,-0.267,0.214,0.14
-0.079,-0.1595,-0.081,0.119,0.0015,-0.1205,-0.265,-0.4145,-0.4405,-0.316,-0.303,-0.0375,-0.2675,0.2165,0.1405
-0.0795,-0.15,-0.071,0.1145,-0.004,-0.1105,-0.2665,-0.4135,-0.439,-0.3145,-0.298,-0.0325,-0.2615,0.2265,0.1365
-0.082,-0.1485,-0.067,0.115,-0.007,-0.1075,-0.2675,-0.4165,-0.44,-0.3155,-0.2985,-0.0325,-0.261,0.2265,0.136
-0.0795,-0.147,-0.068,0.113,-0.0055,-0.1075,-0.2685,-0.4205,-0.4435,-0.3195,-0.3025,-0.037,-0.265,0.2235,0.136
-0.0755,-0.1475,-0.0725,0.1115,-0.0015,-0.1095,-0.265,-0.418,-0.441,-0.318,-0.3005,-0.035,-0.2655,0.221,0.137
-0.0695,-0.1465,-0.077,0.108,0.004,-0.1115,-0.264,-0.412,-0.4375,-0.315,-0.2965,-0.0325,-0.264,0.221,0.138
-0.069,-0.1495,-0.0805,0.109,0.0065,-0.115,-0.266,-0.417,-0.442,-0.318,-0.2985,-0.035,-0.266,0.2155,0.1415
-0.0765,-0.158,-0.0815,0.1175,0.003,-0.12,-0.2635,-0.4185,-0.4425,-0.3165,-0.2985,-0.0325,-0.2655,0.2105,0.143
-0.075,-0.154,-0.079,0.1145,0.0025,-0.117,-0.2645,-0.4125,-0.436,-0.311,-0.2935,-0.0275,-0.2605,0.223,0.1405
-0.072,-0.1515,-0.079,0.1115,0.004,-0.115,-0.2655,-0.4135,-0.4385,-0.3125,-0.295,-0.0275,-0.259,0.221,0.14
-0.073,-0.157,-0.0835,0.115,0.0055,-0.1205,-0.264,-0.414,-0.4405,-0.3155,-0.2965,-0.03,-0.261,0.205,0.141
-0.0725,-0.162,-0.0895,0.117,0.009,-0.126,-0.262,-0.411,-0.4375,-0.3115,-0.294,-0.0295,-0.261,0.202,0.1425
-0.073,-0.167,-0.0935,0.12,0.0105,-0.13,-0.261,-0.413,-0.439,-0.309,-0.294,-0.0275,-0.2605,0.2085,0.1445
-0.074,-0.172,-0.098,0.123,0.012,-0.135,-0.2675,-0.4165,-0.441,-0.309,-0.2925,-0.0265,-0.259,0.204,0.147
-0.075,-0.171,-0.096,0.123,0.011,-0.1335,-0.266,-0.415,-0.4415,-0.3075,-0.2905,-0.0285,-0.2585,0.204,0.147
-0.0765,-0.1635,-0.087,0.12,0.006,-0.1255,-0.2635,-0.4145,-0.4395,-0.3055,-0.2885,-0.0265,-0.2585,0.2125,0.1425
-0.079,-0.161,-0.082,0.12,0.002,-0.1215,-0.2645,-0.414,-0.4395,-0.3075,-0.289,-0.0285,-0.259,0.213,0.14
-0.083,-0.1625,-0.0795,0.1225,-0.001,-0.121,-0.261,-0.41,-0.439,-0.309,-0.292,-0.0315,-0.2615,0.2175,0.14
-0.0845,-0.1625,-0.0785,0.1235,-0.0025,-0.1205,-0.267,-0.415,-0.442,-0.3105,-0.2935,-0.0295,-0.2595,0.2095,0.142
-0.0875,-0.1675,-0.08,0.1275,-0.003,-0.124,-0.2675,-0.4185,-0.4435,-0.31,-0.293,-0.028,-0.26,0.205,0.143
-0.0855,-0.1625,-0.077,0.124,-0.0035,-0.1195,-0.265,-0.414,-0.441,-0.3055,-0.291,-0.026,-0.2595,0.216,0.1395
-0.0795,-0.1525,-0.0735,0.116,-0.0025,-0.113,-0.269,-0.4155,-0.4435,-0.3055,-0.2905,-0.025,-0.256,0.216,0.1385
-0.081,-0.1525,-0.072,0.117,-0.004,-0.112,-0.2715,-0.4185,-0.4455,-0.3075,-0.292,-0.0275,-0.2565,0.2205,0.1375
-0.0835,-0.151,-0.068,0.1175,-0.008,-0.109,-0.275,-0.4225,-0.4495,-0.31,-0.295,-0.03,-0.2555,0.229,0.136
-0.0855,-0.1545,-0.07,0.12,-0.0075,-0.112,-0.274,-0.4235,-0.451,-0.3145,-0.298,-0.033,-0.259,0.227,0.138
-0.083,-0.1595,-0.077,0.1215,-0.0025,-0.1185,-0.273,-0.425,-0.453,-0.3185,-0.3025,-0.0365,-0.263,0.2225,0.1425
-0.0735,-0.1545,-0.081,0.114,0.0045,-0.118,-0.2765,-0.431,-0.458,-0.3225,-0.3055,-0.036,-0.2625,0.2185,0.146
-0.07,-0.1505,-0.0805,0.1105,0.006,-0.1155,-0.274,-0.4285,-0.455,-0.32,-0.3025,-0.0325,-0.2605,0.217,0.1465
-0.0735,-0.153,-0.0795,0.113,0.0035,-0.116,-0.273,-0.425,-0.453,-0.3165,-0.297,-0.03,-0.259,0.221,0.1455
-0.078,-0.1545,-0.0765,0.116,0.0,-0.1155,-0.275,-0.4295,-0.456,-0.3205,-0.3005,-0.0335,-0.263,0.2215,0.1445
-0.078,-0.1545,-0.077,0.1165,0.0,-0.116,-0.2715,-0.427,-0.454,-0.32,-0.304,-0.034,-0.2645,0.2205,0.146
-0.073,-0.1545,-0.0815,0.114,0.0045,-0.118,-0.2685,-0.422,-0.4515,-0.3175,-0.2995,-0.031,-0.2635,0.2155,0.1475
-0.067,-0.152,-0.085,0.1095,0.0095,-0.1185,-0.266,-0.422,-0.4515,-0.317,-0.3005,-0.031,-0.267,0.209,0.149
-0.065,-0.1535,-0.0885,0.109,0.012,-0.121,-0.2645,-0.4175,-0.448,-0.3155,-0.298,-0.03,-0.266,0.209,0.15
-0.067,-0.153,-0.0865,0.11,0.0105,-0.12,-0.265,-0.416,-0.4445,-0.312,-0.2945,-0.0295,-0.2635,0.2155,0.1475
-0.062,-0.147,-0.085,0.1045,0.012,-0.116,-0.2655,-0.4195,-0.4465,-0.312,-0.298,-0.0315,-0.263,0.2185,0.146
-0.0585,-0.142,-0.0835,0.1005,0.013,-0.1125,-0.267,-0.4185,-0.446,-0.314,-0.3015,-0.0345,-0.263,0.2135,0.146
-0.062,-0.1435,-0.0815,0.1025,0.0105,-0.1125,-0.271,-0.4245,-0.451,-0.3175,-0.307,-0.038,-0.2665,0.213,0.148
-0.0635,-0.1475,-0.084,0.1055,0.011,-0.116,-0.275,-0.4305,-0.453,-0.322,-0.3105,-0.0415,-0.2675,0.215,0.1505
-0.068,-0.15,-0.0815,0.109,0.0075,-0.116,-0.277,-0.428,-0.4525,-0.3225,-0.311,-0.0445,-0.269,0.2145,0.1495
-0.07,-0.1465,-0.076,0.1085,0.0035,-0.111,-0.277,-0.4295,-0.454,-0.3195,-0.31,-0.0435,-0.2695,0.2165,0.1465
-0.0665,-0.1375,-0.0715,0.102,0.003,-0.1045,-0.2795,-0.432,-0.456,-0.32,-0.3105,-0.0435,-0.2665,0.222,0.143
-0.0655,-0.1335,-0.0685,0.0995,0.002,-0.101,-0.283,-0.434,-0.461,-0.3225,-0.3125,-0.045,-0.2655,0.2255,0.142
-0.065,-0.128,-0.0635,0.0965,-0.0005,-0.0955,-0.278,-0.432,-0.4545,-0.3175,-0.307,-0.042,-0.2635,0.23,0.1395
-0.0675,-0.128,-0.0615,0.098,-0.003,-0.0945,-0.276,-0.429,-0.4545,-0.317,-0.3055,-0.0415,-0.2645,0.232,0.138
-0.07,-0.14,-0.0705,0.105,0.0005,-0.105,-0.2755,-0.4315,-0.459,-0.32,-0.3095,-0.0455,-0.267,0.2225,0.143
-0.077,-0.149,-0.073,0.113,-0.0015,-0.111,-0.2775,-0.4345,-0.4605,-0.324,-0.312,-0.0485,-0.2675,0.218,0.1455
-0.075,-0.148,-0.0735,0.1115,-0.0005,-0.1105,-0.2795,-0.433,-0.46,-0.3265,-0.3125,-0.0485,-0.2685,0.2225,0.1455
-0.0695,-0.143,-0.074,0.106,0.0025,-0.108,-0.274,-0.4315,-0.4615,-0.324,-0.312,-0.048,-0.2685,0.223,0.1445
-0.0725,-0.141,-0.0695,0.1065,-0.0015,-0.105,-0.273,-0.4315,-0.466,-0.327,-0.3145,-0.05,-0.2705,0.2245,0.1425
-0.073,-0.144,-0.0715,0.1085,-0.0005,-0.1075,-0.272,-0.433,-0.459,-0.3265,-0.3135,-0.0515,-0.2725,0.226,0.143
-0.072,-0.1495,-0.0775,0.111,0.0035,-0.1135,-0.2735,-0.4325,-0.4565,-0.324,-0.311,-0.0495,-0.2715,0.218,0.145
-0.073,-0.155,-0.0815,0.114,0.005,-0.118,-0.2765,-0.4315,-0.459,-0.3265,-0.311,-0.0455,-0.27,0.211,0.1495
-0.083,-0.1595,-0.077,0.121,-0.0025,-0.118,-0.274,-0.4315,-0.458,-0.325,-0.309,-0.0465,-0.272,0.2115,0.1505
-0.081,-0.1555,-0.075,0.118,-0.0025,-0.1155,-0.2725,-0.431,-0.459,-0.3245,-0.3085,-0.045,-0.2725,0.2125,0.15
-0.0795,-0.1495,-0.0705,0.1145,-0.004,-0.11,-0.276,-0.4345,-0.461,-0.326,-0.3075,-0.042,-0.27,0.2155,0.15
-0.0815,-0.147,-0.0665,0.1145,-0.007,-0.1065,-0.276,-0.4325,-0.459,-0.3215,-0.3035,-0.04,-0.2655,0.2185,0.148
-0.074,-0.145,-0.071,0.1095,-0.001,-0.1075,-0.275,-0.4305,-0.456,-0.318,-0.303,-0.037,-0.264,0.2165,0.147
-0.067,-0.1435,-0.0765,0.105,0.005,-0.11,-0.2795,-0.431,-0.4565,-0.3185,-0.3045,-0.038,-0.2645,0.2145,0.1485
-0.0655,-0.144,-0.078,0.1045,0.007,-0.111,-0.2805,-0.429,-0.457,-0.318,-0.302,-0.034,-0.262,0.2155,0.1505
-0.0665,-0.1395,-0.073,0.103,0.0035,-0.1065,-0.278,-0.4285,-0.4575,-0.3195,-0.299,-0.0325,-0.262,0.2205,0.147
-0.0625,-0.13,-0.068,0.0965,0.003,-0.0985,-0.278,-0.43,-0.4595,-0.3225,-0.3,-0.0325,-0.2625,0.2235,0.1425
-0.0635,-0.1265,-0.0635,0.095,0.0,-0.0945,-0.278,-0.431,-0.463,-0.325,-0.3025,-0.0335,-0.2655,0.2245,0.141
-0.0675,-0.128,-0.061,0.098,-0.003,-0.094,-0.2775,-0.432,-0.4645,-0.3285,-0.305,-0.035,-0.2675,0.228,0.14
-0.0695,-0.1325,-0.064,0.101,-0.0025,-0.098,-0.2765,-0.4315,-0.4635,-0.3305,-0.307,-0.0365,-0.267,0.226,0.1415
-0.0695,-0.141,-0.0715,0.105,0.001,-0.106,-0.2795,-0.433,-0.466,-0.3295,-0.307,-0.0365,-0.2655,0.2225,0.145
-0.074,-0.1445,-0.071,0.109,-0.001,-0.1075,-0.278,-0.434,-0.4655,-0.325,-0.304,-0.033,-0.2655,0.221,0.1455
-0.076,-0.145,-0.0695,0.1105,-0.003,-0.107,-0.277,-0.4325,-0.46,-0.321,-0.304,-0.0335,-0.2655,0.2155,0.145
-0.076,-0.145,-0.0695,0.1105,-0.003,-0.107,-0.2795,-0.4365,-0.4625,-0.3205,-0.3065,-0.0355,-0.265,0.2165,0.1455
-0.0785,-0.145,-0.0675,0.1115,-0.005,-0.106,-0.277,-0.436,-0.465,-0.3205,-0.306,-0.0365,-0.2665,0.2155,0.143
-0.075,-0.146,-0.0715,0.11,-0.0015,-0.1085,-0.2765,-0.4305,-0.459,-0.317,-0.3045,-0.0345,-0.2645,0.2155,0.1445
-0.0725,-0.1485,-0.076,0.1105,0.0025,-0.1125,-0.2735,-0.4275,-0.4565,-0.3145,-0.3025,-0.034,-0.263,0.218,0.148
-0.0765,-0.1555,-0.079,0.116,0.002,-0.117,-0.274,-0.427,-0.457,-0.316,-0.302,-0.0335,-0.2635,0.218,0.149
-0.0795,-0.1625,-0.083,0.121,0.0025,-0.123,-0.2775,-0.43,-0.459,-0.32,-0.3075,-0.036,-0.2655,0.2145,0.152
-0.0765,-0.163,-0.0865,0.12,0.0055,-0.125,-0.279,-0.431,-0.4615,-0.3225,-0.3095,-0.038,-0.266,0.2085,0.153
-0.0715,-0.1545,-0.083,0.1135,0.006,-0.119,-0.2785,-0.429,-0.46,-0.3235,-0.308,-0.0375,-0.265,0.2125,0.152
-0.063,-0.1425,-0.0795,0.1025,0.009,-0.1115,-0.2795,-0.428,-0.4585,-0.322,-0.3085,-0.0365,-0.2665,0.2135,0.149
-0.058,-0.138,-0.0805,0.0975,0.012,-0.1095,-0.2805,-0.4265,-0.459,-0.321,-0.3075,-0.0345,-0.265,0.218,0.147
-0.061,-0.139,-0.078,0.1,0.009,-0.1085,-0.2795,-0.425,-0.4585,-0.323,-0.3095,-0.0365,-0.2655,0.223,0.1475
-0.065,-0.145,-0.08,0.105,0.008,-0.1125,-0.278,-0.4285,-0.462,-0.327,-0.315,-0.042,-0.2705,0.2185,0.148
-0.07,-0.1435,-0.074,0.107,0.0025,-0.109,-0.275,-0.427,-0.4605,-0.33,-0.317,-0.0435,-0.272,0.218,0.1475
-0.072,-0.1335,-0.0615,0.103,-0.005,-0.097,-0.2775,-0.4275,-0.459,-0.3305,-0.318,-0.0435,-0.273,0.2195,0.145
-0.072,-0.1265,-0.055,0.0995,-0.008,-0.0905,-0.276,-0.4305,-0.463,-0.331,-0.3175,-0.0435,-0.273,0.2275,0.1435
-0.0705,-0.1235,-0.0535,0.0975,-0.008,-0.0885,-0.2715,-0.4315,-0.4635,-0.3305,-0.315,-0.042,-0.2715,0.229,0.1425
-0.0645,-0.121,-0.0575,0.093,-0.0035,-0.089,-0.27,-0.432,-0.463,-0.3305,-0.3145,-0.042,-0.2705,0.224,0.1445
-0.063,-0.1265,-0.064,0.095,0.001,-0.095,-0.268,-0.429,-0.462,-0.3305,-0.3155,-0.0435,-0.272,0.2215,0.148
-0.0705,-0.137,-0.067,0.104,-0.0015,-0.102,-0.2715,-0.431,-0.4645,-0.331,-0.3175,-0.045,-0.2735,0.224,0.1505
-0.074,-0.1395,-0.066,0.1065,-0.0035,-0.1025,-0.2745,-0.4325,-0.4665,-0.331,-0.319,-0.047,-0.274,0.228,0.15
-0.072,-0.1395,-0.0675,0.106,-0.002,-0.1035,-0.2785,-0.4325,-0.4675,-0.3305,-0.3185,-0.0475,-0.274,0.2275,0.1505
-0.0725,-0.137,-0.065,0.1045,-0.0035,-0.101,-0.28,-0.4345,-0.468,-0.3305,-0.3165,-0.0455,-0.27,0.2285,0.1505
-0.07,-0.14,-0.0705,0.105,0.0005,-0.105,-0.2785,-0.435,-0.4695,-0.331,-0.315,-0.044,-0.2705,0.2215,0.151
-0.073,-0.1505,-0.077,0.1115,0.0025,-0.114,-0.2765,-0.4315,-0.4675,-0.328,-0.3115,-0.04,-0.2695,0.2125,0.1555
-0.077,-0.155,-0.0775,0.116,0.001,-0.1165,-0.273,-0.4265,-0.463,-0.3245,-0.3085,-0.035,-0.267,0.2155,0.1575
-0.073,-0.1585,-0.085,0.116,0.0065,-0.122,-0.275,-0.431,-0.4655,-0.326,-0.309,-0.036,-0.264,0.2135,0.159
-0.075,-0.1595,-0.0845,0.1175,0.005,-0.122,-0.2705,-0.4285,-0.462,-0.3215,-0.305,-0.033,-0.2615,0.211,0.1575
-0.0715,-0.1495,-0.078,0.1105,0.0035,-0.1135,-0.2665,-0.4255,-0.458,-0.316,-0.3025,-0.03,-0.261,0.214,0.1555
-0.0645,-0.141,-0.0765,0.103,0.0065,-0.1085,-0.272,-0.4305,-0.4615,-0.3175,-0.304,-0.033,-0.2615,0.2115,0.154
-0.0655,-0.1415,-0.076,0.1035,0.006,-0.1085,-0.2755,-0.4325,-0.465,-0.3215,-0.3075,-0.0375,-0.264,0.208,0.1525
-0.063,-0.144,-0.081,0.1035,0.0095,-0.1125,-0.279,-0.4435,-0.4725,-0.328,-0.3125,-0.04,-0.2625,0.2105,0.156
-0.0645,-0.144,-0.0795,0.1045,0.008,-0.112,-0.275,-0.434,-0.4655,-0.3245,-0.3085,-0.036,-0.26,0.216,0.156
-0.068,-0.1405,-0.0725,0.104,0.0025,-0.106,-0.27,-0.4245,-0.459,-0.3215,-0.3075,-0.035,-0.259,0.222,0.1525
-0.0755,-0.143,-0.068,0.109,-0.004,-0.105,-0.273,-0.434,-0.466,-0.329,-0.309,-0.039,-0.26,0.2245,0.152
-0.075,-0.1385,-0.064,0.107,-0.0055,-0.101,-0.2765,-0.4365,-0.467,-0.329,-0.307,-0.0385,-0.26,0.226,0.148
-0.0685,-0.132,-0.064,0.1005,-0.002,-0.098,-0.276,-0.438,-0.463,-0.328,-0.3065,-0.035,-0.2595,0.228,0.146
-0.061,-0.1295,-0.069,0.0955,0.0045,-0.099,-0.276,-0.4355,-0.4635,-0.3315,-0.3095,-0.0385,-0.2605,0.228,0.1485
-0.0515,-0.1315,-0.0795,0.0915,0.0145,-0.1055,-0.2775,-0.4335,-0.4655,-0.3305,-0.312,-0.0405,-0.262,0.224,0.1515
-0.056,-0.1415,-0.0855,0.0985,0.0155,-0.1135,-0.2755,-0.433,-0.464,-0.329,-0.3095,-0.0385,-0.2625,0.2185,0.1515
-0.06,-0.1445,-0.085,0.102,0.013,-0.115,-0.2755,-0.433,-0.466,-0.3305,-0.309,-0.0405,-0.2615,0.2205,0.153
-0.0605,-0.147,-0.0865,0.104,0.0135,-0.1165,-0.2765,-0.4375,-0.468,-0.3325,-0.3105,-0.0425,-0.2615,0.2195,0.1545
-0.06,-0.1455,-0.0855,0.103,0.013,-0.1155,-0.278,-0.439,-0.468,-0.331,-0.3105,-0.043,-0.263,0.218,0.1515
-0.063,-0.148,-0.085,0.1055,0.0115,-0.1165,-0.276,-0.4345,-0.466,-0.3295,-0.311,-0.0425,-0.2645,0.2185,0.152
-0.066,-0.158,-0.092,0.1115,0.0135,-0.125,-0.277,-0.433,-0.4635,-0.3275,-0.3115,-0.0425,-0.263,0.212,0.156
-0.066,-0.1625,-0.097,0.114,0.016,-0.1295,-0.2805,-0.44,-0.466,-0.326,-0.3105,-0.043,-0.2615,0.2105,0.1565
-0.0735,-0.1655,-0.092,0.1195,0.01,-0.1285,-0.2785,-0.439,-0.4635,-0.3225,-0.306,-0.0415,-0.2625,0.214,0.155
-0.073,-0.1635,-0.0905,0.118,0.0095,-0.127,-0.278,-0.435,-0.46,-0.3215,-0.3075,-0.044,-0.265,0.2125,0.1555
-0.0725,-0.159,-0.0865,0.116,0.0075,-0.123,-0.2795,-0.4365,-0.463,-0.3245,-0.311,-0.047,-0.2665,0.2115,0.154
-0.0735,-0.1515,-0.078,0.1125,0.003,-0.115,-0.278,-0.436,-0.4615,-0.3225,-0.309,-0.0455,-0.265,0.214,0.1515
-0.073,-0.1445,-0.072,0.1085,-0.0005,-0.108,-0.275,-0.4355,-0.462,-0.3205,-0.307,-0.0445,-0.267,0.212,0.1495
-0.08,-0.1465,-0.067,0.113,-0.006,-0.1065,-0.276,-0.433,-0.463,-0.3205,-0.306,-0.0445,-0.269,0.213,0.1485
-0.0845,-0.1525,-0.0685,0.1185,-0.0075,-0.1105,-0.276,-0.4315,-0.463,-0.3215,-0.307,-0.045,-0.268,0.2185,0.151
-0.089,-0.153,-0.0645,0.121,-0.012,-0.1085,-0.2785,-0.4345,-0.464,-0.3215,-0.309,-0.047,-0.2695,0.222,0.151
-0.0805,-0.1445,-0.0645,0.1125,-0.008,-0.1045,-0.283,-0.44,-0.465,-0.323,-0.3105,-0.046,-0.269,0.2235,0.1495
-0.0665,-0.134,-0.0685,0.1,0.001,-0.1005,-0.2835,-0.439,-0.465,-0.323,-0.309,-0.0425,-0.266,0.225,0.1455
-0.059,-0.1275,-0.069,0.0935,0.005,-0.098,-0.284,-0.4365,-0.465,-0.3245,-0.3085,-0.042,-0.265,0.2255,0.1435
-0.061,-0.1315,-0.071,0.096,0.005,-0.101,-0.285,-0.4425,-0.4705,-0.3295,-0.312,-0.042,-0.2645,0.2205,0.144
-0.064,-0.137,-0.0735,0.1005,0.005,-0.105,-0.283,-0.441,-0.4685,-0.3295,-0.3105,-0.0395,-0.265,0.215,0.147
-0.055,-0.1335,-0.0785,0.0945,0.012,-0.106,-0.275,-0.43,-0.461,-0.323,-0.304,-0.035,-0.264,0.214,0.148
-0.05,-0.128,-0.078,0.0895,0.0145,-0.1035,-0.273,-0.4305,-0.4615,-0.323,-0.3025,-0.0335,-0.264,0.2165,0.146
-0.05,-0.1275,-0.078,0.089,0.0145,-0.103,-0.273,-0.4335,-0.4635,-0.326,-0.3045,-0.0355,-0.266,0.218,0.1475
-0.0535,-0.128,-0.0745,0.091,0.011,-0.101,-0.2765,-0.4335,-0.4655,-0.326,-0.3075,-0.0375,-0.266,0.221,0.1485
-0.0505,-0.1275,-0.0775,0.089,0.014,-0.1025,-0.2795,-0.436,-0.466,-0.3275,-0.3085,-0.037,-0.265,0.2195,0.1525
-0.0455,-0.1305,-0.085,0.088,0.0205,-0.1075,-0.277,-0.4325,-0.4625,-0.3225,-0.3055,-0.0365,-0.2645,0.2185,0.157
-0.0525,-0.14,-0.088,0.0965,0.018,-0.114,-0.278,-0.4315,-0.463,-0.322,-0.306,-0.037,-0.2645,0.2125,0.161
-0.058,-0.1505,-0.0925,0.104,0.018,-0.1215,-0.2735,-0.429,-0.46,-0.322,-0.306,-0.0375,-0.266,0.2075,0.1615
-0.0625,-0.1535,-0.091,0.108,0.015,-0.1225,-0.276,-0.4315,-0.4615,-0.3225,-0.3095,-0.042,-0.2675,0.209,0.159
-0.066,-0.151,-0.085,0.1085,0.01,-0.118,-0.2795,-0.435,-0.4635,-0.3265,-0.3175,-0.046,-0.2705,0.216,0.158
-0.068,-0.1475,-0.0795,0.108,0.0065,-0.114,-0.282,-0.436,-0.465,-0.3295,-0.319,-0.046,-0.269,0.2245,0.156
-0.0695,-0.145,-0.0755,0.1075,0.003,-0.11,-0.283,-0.4385,-0.4695,-0.337,-0.323,-0.0495,-0.2685,0.2245,0.156
-0.068,-0.142,-0.074,0.105,0.0035,-0.108,-0.281,-0.44,-0.4705,-0.338,-0.3255,-0.0525,-0.269,0.225,0.159
-0.066,-0.1415,-0.0755,0.1035,0.0055,-0.1085,-0.283,-0.442,-0.4725,-0.336,-0.3235,-0.0525,-0.2695,0.225,0.16
-0.0655,-0.139,-0.074,0.102,0.0045,-0.1065,-0.2845,-0.442,-0.473,-0.337,-0.328,-0.056,-0.2725,0.227,0.158
-0.066,-0.134,-0.0685,0.1,0.0015,-0.101,-0.285,-0.4405,-0.4735,-0.3385,-0.329,-0.056,-0.271,0.232,0.155
-0.065,-0.129,-0.0645,0.097,0.0,-0.0965,-0.2825,-0.4385,-0.474,-0.339,-0.328,-0.0545,-0.269,0.2355,0.1525
-0.0575,-0.1235,-0.0665,0.0905,0.0045,-0.0945,-0.284,-0.443,-0.4775,-0.342,-0.3305,-0.0575,-0.2705,0.23,0.1525
-0.0505,-0.1175,-0.0675,0.084,0.009,-0.092,-0.2825,-0.4385,-0.4745,-0.34,-0.327,-0.0565,-0.27,0.2265,0.1515
-0.0525,-0.119,-0.067,0.0855,0.0075,-0.0925,-0.28,-0.433,-0.4685,-0.334,-0.3225,-0.055,-0.27,0.227,0.1525
-0.0565,-0.1305,-0.0745,0.0935,0.0095,-0.1025,-0.2825,-0.4375,-0.4715,-0.3375,-0.324,-0.057,-0.27,0.2225,0.1555
-0.061,-0.1375,-0.0765,0.0995,0.008,-0.1065,-0.282,-0.4365,-0.469,-0.338,-0.3215,-0.0575,-0.269,0.2235,0.156
-0.0625,-0.1355,-0.0735,0.099,0.006,-0.104,-0.2825,-0.4375,-0.469,-0.336,-0.32,-0.055,-0.27,0.2265,0.155
-0.0615,-0.136,-0.0745,0.099,0.007,-0.105,-0.2845,-0.4395,-0.471,-0.3355,-0.3195,-0.053,-0.267,0.227,0.1535
-0.063,-0.1425,-0.0795,0.1025,0.009,-0.111,-0.2835,-0.4385,-0.4695,-0.334,-0.318,-0.054,-0.2675,0.221,0.1525
-0.0615,-0.1495,-0.088,0.1055,0.0135,-0.1185,-0.284,-0.4385,-0.4695,-0.3345,-0.3185,-0.055,-0.271,0.215,0.1565
-0.0655,-0.1545,-0.089,0.11,0.012,-0.122,-0.281,-0.437,-0.469,-0.334,-0.319,-0.0545,-0.271,0.2135,0.1615
-0.069,-0.1565,-0.0875,0.113,0.01,-0.122,-0.28,-0.4365,-0.47,-0.3345,-0.3215,-0.055,-0.273,0.215,0.163
-0.06,-0.151,-0.091,0.1055,0.016,-0.121,-0.2815,-0.437,-0.4685,-0.334,-0.3185,-0.0525,-0.2715,0.209,0.162
-0.0555,-0.149,-0.094,0.102,0.0195,-0.1215,-0.285,-0.4435,-0.471,-0.3355,-0.318,-0.0495,-0.269,0.205,0.1605
-0.0575,-0.144,-0.0865,0.101,0.015,-0.1155,-0.2895,-0.445,-0.472,-0.337,-0.318,-0.049,-0.2685,0.217,0.1575
-0.061,-0.1415,-0.0805,0.101,0.0105,-0.111,-0.288,-0.4385,-0.47,-0.335,-0.3175,-0.05,-0.269,0.2215,0.155
-0.057,-0.1385,-0.0815,0.0975,0.013,-0.11,-0.2845,-0.4395,-0.4685,-0.3345,-0.3185,-0.0505,-0.271,0.2185,0.156
-0.054,-0.1365,-0.0825,0.0955,0.0145,-0.1095,-0.284,-0.4355,-0.4645,-0.331,-0.317,-0.0485,-0.271,0.2205,0.16
-0.0605,-0.139,-0.0785,0.0995,0.0095,-0.109,-0.2845,-0.434,-0.4685,-0.3325,-0.3195,-0.0505,-0.273,0.2225,0.1575
-0.0575,-0.132,-0.0745,0.095,0.009,-0.103,-0.29,-0.442,-0.4765,-0.3385,-0.3225,-0.0545,-0.274,0.2255,0.156
-0.0555,-0.126,-0.0715,0.091,0.008,-0.0985,-0.2945,-0.443,-0.478,-0.3415,-0.323,-0.0555,-0.2735,0.233,0.1565
-0.0525,-0.1215,-0.0695,0.087,0.009,-0.0955,-0.294,-0.4405,-0.4735,-0.341,-0.3225,-0.053,-0.2725,0.2345,0.154
-0.0495,-0.1215,-0.0725,0.0855,0.012,-0.097,-0.2975,-0.445,-0.478,-0.3415,-0.324,-0.052,-0.2735,0.23,0.156
-0.0505,-0.1245,-0.0745,0.088,0.012,-0.0995,-0.296,-0.4445,-0.479,-0.346,-0.3265,-0.0555,-0.277,0.2315,0.158
-0.0555,-0.1305,-0.075,0.093,0.01,-0.1025,-0.291,-0.4415,-0.472,-0.3405,-0.3215,-0.053,-0.2755,0.232,0.1585
-0.058,-0.131,-0.0735,0.0945,0.0085,-0.102,-0.289,-0.437,-0.469,-0.3335,-0.316,-0.0485,-0.2715,0.2295,0.1585
-0.0545,-0.129,-0.0745,0.0915,0.0105,-0.1015,-0.2885,-0.4365,-0.47,-0.3345,-0.315,-0.0475,-0.2685,0.226,0.156
-0.055,-0.132,-0.0765,0.0935,0.0115,-0.104,-0.2935,-0.443,-0.475,-0.3355,-0.3145,-0.046,-0.265,0.223,0.1545
-0.057,-0.132,-0.0755,0.0945,0.01,-0.1035,-0.2945,-0.443,-0.4745,-0.3375,-0.3145,-0.0455,-0.2645,0.2225,0.1545
-0.0615,-0.14,-0.0785,0.1005,0.009,-0.109,-0.286,-0.442,-0.4745,-0.338,-0.316,-0.0495,-0.267,0.216,0.1575
-0.063,-0.1435,-0.08,0.103,0.009,-0.1115,-0.28,-0.442,-0.4745,-0.3395,-0.318,-0.053,-0.2695,0.2105,0.1625
-0.0645,-0.1445,-0.08,0.1045,0.008,-0.1125,-0.2755,-0.4365,-0.4675,-0.336,-0.3145,-0.0505,-0.2705,0.2095,0.1635
-0.064,-0.146,-0.082,0.105,0.0095,-0.114,-0.2745,-0.4335,-0.47,-0.3335,-0.3135,-0.049,-0.2675,0.211,0.1625
-0.0585,-0.141,-0.0825,0.0995,0.0125,-0.1115,-0.278,-0.4345,-0.47,-0.336,-0.314,-0.049,-0.265,0.216,0.162
-0.063,-0.137,-0.074,0.1,0.006,-0.1055,-0.278,-0.4345,-0.4635,-0.335,-0.3125,-0.0485,-0.2655,0.2155,0.1605
-0.0685,-0.136,-0.068,0.1025,-0.0005,-0.1015,-0.281,-0.4375,-0.468,-0.337,-0.314,-0.0495,-0.2655,0.2165,0.162
-0.068,-0.1355,-0.0675,0.1015,0.0,-0.101,-0.2825,-0.4375,-0.469,-0.336,-0.3115,-0.0475,-0.2635,0.218,0.1625
-0.0665,-0.1335,-0.0675,0.1,0.001,-0.1005,-0.2795,-0.4375,-0.4675,-0.3345,-0.313,-0.0485,-0.2635,0.222,0.163
-0.0615,-0.1305,-0.069,0.096,0.004,-0.0995,-0.281,-0.44,-0.4705,-0.336,-0.3145,-0.0495,-0.263,0.2265,0.163
-0.0615,-0.1255,-0.065,0.0935,0.002,-0.095,-0.2825,-0.439,-0.471,-0.3355,-0.312,-0.0465,-0.2595,0.2285,0.1585
-0.0645,-0.125,-0.061,0.0945,-0.0015,-0.0925,-0.283,-0.439,-0.4705,-0.337,-0.3135,-0.047,-0.26,0.2345,0.1555
-0.065,-0.1225,-0.058,0.094,-0.0035,-0.09,-0.2825,-0.44,-0.472,-0.3395,-0.317,-0.0465,-0.263,0.2375,0.1545
-0.065,-0.12,-0.056,0.0925,-0.0045,-0.088,-0.2815,-0.441,-0.474,-0.342,-0.3185,-0.047,-0.265,0.2375,0.155
-0.0665,-0.1275,-0.0615,0.097,-0.002,-0.0945,-0.286,-0.446,-0.479,-0.3485,-0.3235,-0.0525,-0.269,0.232,0.1575
-0.0675,-0.136,-0.069,0.1015,0.001,-0.102,-0.2855,-0.447,-0.482,-0.351,-0.329,-0.055,-0.2715,0.227,0.1595
-0.066,-0.138,-0.072,0.102,0.003,-0.1045,-0.2825,-0.442,-0.48,-0.3495,-0.3285,-0.055,-0.2705,0.229,0.1595
-0.066,-0.1385,-0.073,0.1025,0.004,-0.1055,-0.281,-0.439,-0.4775,-0.3485,-0.328,-0.057,-0.272,0.226,0.159
-0.0625,-0.1355,-0.073,0.099,0.0055,-0.104,-0.278,-0.435,-0.4725,-0.3445,-0.325,-0.055,-0.2705,0.2215,0.157
-0.062,-0.134,-0.0725,0.098,0.0055,-0.103,-0.279,-0.4365,-0.473,-0.343,-0.3255,-0.056,-0.2725,0.2285,0.16
-0.061,-0.1405,-0.0795,0.1005,0.01,-0.11,-0.279,-0.436,-0.4715,-0.3425,-0.3255,-0.057,-0.2755,0.2275,0.1635
-0.055,-0.143,-0.0875,0.099,0.0165,-0.115,-0.277,-0.432,-0.469,-0.34,-0.323,-0.0555,-0.2725,0.22,0.1655
-0.057,-0.1455,-0.089,0.1015,0.0165,-0.117,-0.2795,-0.4335,-0.4715,-0.342,-0.3265,-0.0575,-0.2745,0.2185,0.167
-0.059,-0.147,-0.088,0.103,0.015,-0.1175,-0.2825,-0.4375,-0.472,-0.344,-0.33,-0.0595,-0.2765,0.2165,0.167
-0.0595,-0.143,-0.0835,0.101,0.0125,-0.113,-0.2825,-0.4405,-0.4735,-0.343,-0.328,-0.0575,-0.2755,0.2215,0.163
-0.065,-0.1405,-0.0755,0.1025,0.006,-0.108,-0.2805,-0.439,-0.472,-0.3405,-0.3275,-0.0575,-0.2775,0.226,0.1585
-0.0655,-0.139,-0.074,0.102,0.0045,-0.1065,-0.2815,-0.441,-0.4735,-0.3415,-0.328,-0.059,-0.2785,0.225,0.1585
-0.065,-0.137,-0.0725,0.101,0.004,-0.1045,-0.2815,-0.4425,-0.473,-0.3415,-0.3235,-0.055,-0.276,0.2255,0.157
-0.064,-0.1385,-0.0745,0.101,0.0055,-0.1065,-0.2815,-0.441,-0.4705,-0.339,-0.322,-0.053,-0.2745,0.222,0.1585
-0.057,-0.1345,-0.077,0.0955,0.0105,-0.106,-0.2815,-0.4405,-0.472,-0.338,-0.321,-0.053,-0.275,0.223,0.1575
-0.0545,-0.124,-0.07,0.0895,0.008,-0.097,-0.285,-0.4445,-0.473,-0.3375,-0.3185,-0.0515,-0.271,0.227,0.1555
-0.057,-0.1225,-0.066,0.09,0.005,-0.094,-0.2845,-0.4445,-0.473,-0.337,-0.3185,-0.05,-0.271,0.227,0.154
-0.0645,-0.123,-0.0595,0.094,-0.002,-0.0915,-0.284,-0.445,-0.473,-0.338,-0.318,-0.049,-0.271,0.2275,0.151
-0.0695,-0.1235,-0.054,0.097,-0.0075,-0.0885,-0.2885,-0.4525,-0.478,-0.338,-0.3185,-0.0465,-0.2665,0.2285,0.154
-0.067,-0.1235,-0.057,0.0955,-0.005,-0.09,-0.2845,-0.4425,-0.4705,-0.3335,-0.3145,-0.0435,-0.265,0.2315,0.154
-0.0655,-0.127,-0.062,0.096,-0.0015,-0.094,-0.282,-0.4345,-0.4645,-0.33,-0.312,-0.0405,-0.2645,0.229,0.157
-0.065,-0.1365,-0.0715,0.1005,0.0035,-0.104,-0.283,-0.4395,-0.4695,-0.333,-0.313,-0.0415,-0.2645,0.2275,0.1605
-0.0695,-0.142,-0.0725,0.1055,0.0015,-0.107,-0.285,-0.4425,-0.471,-0.338,-0.313,-0.0445,-0.2665,0.2265,0.1585
-0.0695,-0.14,-0.071,0.1045,0.001,-0.105,-0.2865,-0.4425,-0.4725,-0.338,-0.3145,-0.044,-0.265,0.222,0.1575
-0.0675,-0.139,-0.072,0.103,0.0025,-0.105,-0.285,-0.443,-0.473,-0.3385,-0.314,-0.043,-0.2645,0.223,0.1585
-0.0665,-0.139,-0.0725,0.103,0.003,-0.1055,-0.282,-0.4385,-0.47,-0.336,-0.3095,-0.041,-0.2665,0.221,0.1615
-0.0675,-0.1395,-0.0725,0.1035,0.003,-0.1055,-0.2805,-0.4355,-0.4695,-0.3345,-0.3095,-0.042,-0.2705,0.215,0.165
-0.0755,-0.146,-0.071,0.111,-0.002,-0.1085,-0.281,-0.437,-0.469,-0.3355,-0.3095,-0.044,-0.27,0.216,0.166
-0.076,-0.147,-0.0715,0.1115,-0.002,-0.109,-0.283,-0.438,-0.465,-0.3305,-0.307,-0.0425,-0.2665,0.225,0.165
-0.076,-0.1365,-0.061,0.106,-0.007,-0.0985,-0.281,-0.436,-0.4635,-0.328,-0.306,-0.0405,-0.269,0.233,0.16
-0.076,-0.128,-0.0525,0.102,-0.011,-0.0905,-0.281,-0.435,-0.466,-0.329,-0.3055,-0.0405,-0.271,0.2375,0.1565
-0.0775,-0.1285,-0.051,0.103,-0.013,-0.0895,-0.282,-0.438,-0.4705,-0.3315,-0.311,-0.0465,-0.2735,0.243,0.156
-0.078,-0.126,-0.0485,0.102,-0.0145,-0.087,-0.2785,-0.4365,-0.471,-0.334,-0.3155,-0.049,-0.2755,0.246,0.1565
-0.07,-0.1205,-0.0515,0.0955,-0.009,-0.0855,-0.2795,-0.44,-0.4715,-0.335,-0.3175,-0.051,-0.276,0.2425,0.159
-0.0655,-0.1185,-0.053,0.092,-0.006,-0.0855,-0.2775,-0.439,-0.47,-0.3335,-0.3175,-0.052,-0.2755,0.242,0.157
-0.063,-0.116,-0.053,0.0895,-0.0045,-0.084,-0.279,-0.4405,-0.4715,-0.3335,-0.3195,-0.054,-0.277,0.2485,0.151
-0.063,-0.1105,-0.048,0.087,-0.0075,-0.079,-0.281,-0.445,-0.4735,-0.335,-0.323,-0.0565,-0.2765,0.2505,0.149
-0.0615,-0.102,-0.041,0.082,-0.01,-0.0715,-0.277,-0.437,-0.464,-0.3285,-0.3155,-0.048,-0.272,0.259,0.1455
-0.059,-0.1,-0.0415,0.0795,-0.0085,-0.0705,-0.2725,-0.434,-0.46,-0.324,-0.311,-0.045,-0.272,0.262,0.143
-0.06,-0.106,-0.0465,0.0825,-0.0065,-0.076,-0.2645,-0.428,-0.4545,-0.3225,-0.31,-0.0445,-0.274,0.2525,0.1445
-0.0615,-0.108,-0.047,0.0845,-0.007,-0.0775,-0.259,-0.419,-0.4505,-0.3205,-0.31,-0.0435,-0.276,0.253,0.1435
-0.062,-0.109,-0.047,0.0855,-0.0075,-0.0775,-0.2555,-0.418,-0.4515,-0.3205,-0.311,-0.043,-0.277,0.257,0.1425
-0.066,-0.106,-0.0405,0.086,-0.0125,-0.073,-0.25,-0.415,-0.4465,-0.3175,-0.307,-0.0385,-0.277,0.2665,0.1395
-0.0665,-0.0965,-0.0305,0.0815,-0.018,-0.063,-0.247,-0.4115,-0.4455,-0.3145,-0.304,-0.0365,-0.2775,0.2735,0.136
-0.064,-0.093,-0.03,0.0785,-0.017,-0.0615,-0.2435,-0.41,-0.4435,-0.3115,-0.3,-0.033,-0.2745,0.279,0.1345
-0.0675,-0.103,-0.036,0.085,-0.0155,-0.0695,-0.2435,-0.4125,-0.445,-0.3095,-0.2985,-0.031,-0.2725,0.274,0.138
-0.0725,-0.1135,-0.042,0.093,-0.015,-0.0775,-0.2485,-0.414,-0.4465,-0.311,-0.3005,-0.033,-0.272,0.269,0.141
-0.07,-0.115,-0.045,0.0925,-0.012,-0.08,-0.2455,-0.411,-0.4445,-0.3115,-0.2995,-0.033,-0.271,0.2715,0.142
-0.0715,-0.1175,-0.0465,0.0945,-0.0125,-0.0815,-0.243,-0.4105,-0.4465,-0.3115,-0.3015,-0.0345,-0.2735,0.27,0.143
-0.0745,-0.114,-0.04,0.0945,-0.017,-0.0765,-0.2435,-0.413,-0.4495,-0.3145,-0.303,-0.035,-0.2755,0.274,0.1425
-0.068,-0.106,-0.038,0.087,-0.015,-0.0715,-0.241,-0.4125,-0.449,-0.315,-0.3015,-0.033,-0.275,0.2695,0.1415
-0.0695,-0.1025,-0.0335,0.086,-0.0175,-0.068,-0.241,-0.412,-0.449,-0.314,-0.3005,-0.032,-0.275,0.267,0.1395
-0.0735,-0.099,-0.026,0.0865,-0.0235,-0.0625,-0.2405,-0.412,-0.4475,-0.3135,-0.2975,-0.03,-0.274,0.2715,0.139
-0.0705,-0.0965,-0.027,0.0835,-0.022,-0.0615,-0.2385,-0.408,-0.444,-0.3085,-0.2935,-0.026,-0.2735,0.2755,0.138
-0.0635,-0.0895,-0.0265,0.0765,-0.0185,-0.058,-0.234,-0.4045,-0.4415,-0.306,-0.2915,-0.0235,-0.274,0.2815,0.1355
-0.0615,-0.0825,-0.0215,0.072,-0.0195,-0.052,-0.234,-0.4075,-0.444,-0.307,-0.291,-0.0205,-0.2715,0.2845,0.1315
-0.0635,-0.08,-0.017,0.072,-0.023,-0.0485,-0.235,-0.408,-0.446,-0.3085,-0.2905,-0.019,-0.2675,0.2885,0.1295
-0.0605,-0.079,-0.019,0.07,-0.0205,-0.049,-0.234,-0.4045,-0.444,-0.308,-0.291,-0.021,-0.267,0.287,0.1285
-0.0585,-0.081,-0.023,0.0695,-0.0175,-0.0515,-0.237,-0.4085,-0.449,-0.311,-0.2945,-0.0235,-0.2675,0.2815,0.13
-0.056,-0.087,-0.0315,0.0715,-0.012,-0.059,-0.2405,-0.411,-0.452,-0.313,-0.297,-0.027,-0.269,0.2825,0.1335
-0.0525,-0.0925,-0.0405,0.0725,-0.0055,-0.0665,-0.246,-0.4135,-0.4525,-0.313,-0.2965,-0.0275,-0.2675,0.2745,0.135
-0.057,-0.097,-0.0405,0.077,-0.0075,-0.0685,-0.248,-0.414,-0.454,-0.3165,-0.2965,-0.027,-0.267,0.2695,0.138
-0.0595,-0.0985,-0.0395,0.079,-0.0095,-0.069,-0.2505,-0.4165,-0.456,-0.3155,-0.296,-0.027,-0.2695,0.2725,0.137
-0.0545,-0.092,-0.0385,0.0735,-0.0075,-0.065,-0.257,-0.424,-0.459,-0.3165,-0.294,-0.023,-0.2655,0.2735,0.1375
-0.0505,-0.089,-0.039,0.07,-0.0055,-0.064,-0.2605,-0.4225,-0.4535,-0.311,-0.2915,-0.022,-0.262,0.2775,0.1405
-0.0525,-0.092,-0.04,0.0725,-0.006,-0.066,-0.261,-0.417,-0.45,-0.3075,-0.288,-0.0195,-0.2615,0.2765,0.141
-0.055,-0.091,-0.0365,0.0735,-0.009,-0.0635,-0.2625,-0.416,-0.45,-0.3075,-0.2865,-0.0175,-0.2635,0.2805,0.1415
-0.054,-0.0935,-0.0405,0.0735,-0.0065,-0.0665,-0.267,-0.42,-0.4505,-0.307,-0.2895,-0.0205,-0.265,0.277,0.143
-0.0495,-0.0925,-0.0435,0.071,-0.0025,-0.0675,-0.268,-0.419,-0.4495,-0.308,-0.2895,-0.0195,-0.265,0.2755,0.1415
-0.047,-0.0855,-0.039,0.066,-0.004,-0.062,-0.274,-0.4235,-0.4505,-0.31,-0.2905,-0.0205,-0.2665,0.2775,0.1375
-0.0445,-0.083,-0.039,0.0635,-0.0025,-0.061,-0.2815,-0.4295,-0.4545,-0.3155,-0.295,-0.0245,-0.266,0.272,0.139
-0.045,-0.08,-0.035,0.0625,-0.0045,-0.057,-0.2785,-0.4255,-0.453,-0.3135,-0.293,-0.0235,-0.266,0.281,0.1395
-0.046,-0.075,-0.029,0.0605,-0.008,-0.052,-0.2815,-0.4265,-0.452,-0.312,-0.289,-0.0205,-0.264,0.2885,0.141
-0.0425,-0.0715,-0.0295,0.057,-0.006,-0.0505,-0.288,-0.43,-0.4525,-0.3135,-0.289,-0.0205,-0.2625,0.288,0.146
-0.042,-0.0685,-0.0275,0.055,-0.007,-0.048,-0.2925,-0.434,-0.4555,-0.3145,-0.2915,-0.0245,-0.264,0.288,0.1475
-0.0405,-0.0625,-0.0225,0.0515,-0.009,-0.0425,-0.301,-0.44,-0.4605,-0.316,-0.292,-0.0265,-0.2635,0.2985,0.1475
-0.0425,-0.0595,-0.0175,0.051,-0.012,-0.0385,-0.301,-0.442,-0.4615,-0.3145,-0.2915,-0.0255,-0.2625,0.3065,0.1425
-0.0435,-0.054,-0.011,0.0485,-0.016,-0.0325,-0.298,-0.4365,-0.457,-0.309,-0.288,-0.0225,-0.259,0.3105,0.1395
-0.0385,-0.047,-0.0095,0.0425,-0.014,-0.028,-0.305,-0.441,-0.4605,-0.3085,-0.289,-0.023,-0.2585,0.313,0.1425
-0.0345,-0.048,-0.014,0.0415,-0.01,-0.0305,-0.3105,-0.4425,-0.4585,-0.3065,-0.288,-0.0215,-0.257,0.308,0.1475
-0.0365,-0.052,-0.0165,0.044,-0.01,-0.034,-0.3095,-0.441,-0.458,-0.304,-0.285,-0.019,-0.253,0.309,0.1535
-0.0345,-0.053,-0.019,0.044,-0.0075,-0.036,-0.304,-0.44,-0.457,-0.3035,-0.285,-0.018,-0.2545,0.31,0.1545
-0.0325,-0.055,-0.023,0.044,-0.0045,-0.039,-0.299,-0.434,-0.453,-0.3035,-0.2855,-0.0155,-0.2545,0.31,0.1555
-0.0365,-0.052,-0.016,0.0445,-0.01,-0.034,-0.2985,-0.4395,-0.457,-0.3075,-0.2885,-0.017,-0.2575,0.324,0.1515
-0.03,-0.0415,-0.012,0.0355,-0.009,-0.026,-0.2955,-0.4385,-0.453,-0.3055,-0.2835,-0.011,-0.2575,0.321,0.1495
-0.029,-0.0475,-0.019,0.038,-0.005,-0.033,-0.2985,-0.4445,-0.458,-0.308,-0.284,-0.0105,-0.256,0.308,0.159
-0.0315,-0.056,-0.025,0.0435,-0.003,-0.0405,-0.3035,-0.4515,-0.4645,-0.3145,-0.2885,-0.0145,-0.256,0.313,0.1665
-0.033,-0.0625,-0.0295,0.0475,-0.0015,-0.046,-0.305,-0.4565,-0.469,-0.3195,-0.2895,-0.0135,-0.254,0.3105,0.175
-0.036,-0.0675,-0.0315,0.0515,-0.002,-0.049,-0.3075,-0.4605,-0.471,-0.3215,-0.2915,-0.016,-0.2545,0.313,0.1775
-0.032,-0.062,-0.0305,0.047,-0.0005,-0.046,-0.3115,-0.461,-0.4755,-0.3245,-0.2925,-0.0155,-0.2535,0.3195,0.177
-0.0265,-0.0545,-0.0285,0.0405,0.0015,-0.0415,-0.316,-0.4645,-0.4785,-0.3265,-0.2915,-0.015,-0.252,0.3175,0.1765
-0.0215,-0.0465,-0.025,0.034,0.002,-0.0355,-0.3145,-0.46,-0.4735,-0.323,-0.288,-0.014,-0.251,0.3185,0.1715
-0.0215,-0.0455,-0.0245,0.0335,0.0015,-0.035,-0.318,-0.465,-0.477,-0.324,-0.288,-0.013,-0.2495,0.3205,0.1735
-0.0195,-0.044,-0.0255,0.0315,0.0035,-0.0345,-0.318,-0.46,-0.474,-0.321,-0.285,-0.0095,-0.248,0.3205,0.1735
-0.013,-0.037,-0.0245,0.025,0.006,-0.0305,-0.31,-0.449,-0.469,-0.316,-0.281,-0.0055,-0.2455,0.32,0.1685
-0.011,-0.033,-0.0225,0.0225,0.006,-0.0275,-0.313,-0.454,-0.47,-0.318,-0.2835,-0.007,-0.244,0.3195,0.1655
-0.014,-0.037,-0.0235,0.0255,0.005,-0.03,-0.3195,-0.4585,-0.475,-0.323,-0.287,-0.0095,-0.2435,0.312,0.1645
-0.01,-0.0345,-0.025,0.022,0.0075,-0.029,-0.3175,-0.4545,-0.4725,-0.3205,-0.2835,-0.0065,-0.239,0.314,0.158
-0.0075,-0.033,-0.0265,0.0205,0.0095,-0.0295,-0.322,-0.459,-0.4745,-0.32,-0.2835,-0.0045,-0.236,0.316,0.159
-0.0035,-0.0335,-0.0305,0.0185,0.0135,-0.032,-0.325,-0.4635,-0.476,-0.3215,-0.2825,-0.003,-0.234,0.31,0.1615
0.0025,-0.033,-0.036,0.015,0.0195,-0.034,-0.3225,-0.4575,-0.4705,-0.318,-0.2805,-0.0035,-0.2335,0.3105,0.161
0.001,-0.0375,-0.0395,0.018,0.0205,-0.038,-0.324,-0.459,-0.4735,-0.3195,-0.282,-0.0055,-0.2345,0.309,0.164
0.002,-0.0435,-0.046,0.0205,0.0245,-0.0445,-0.323,-0.458,-0.4675,-0.3135,-0.2745,-0.002,-0.229,0.2985,0.163
-0.0025,-0.0485,-0.0465,0.0255,0.0225,-0.0475,-0.321,-0.4515,-0.4625,-0.3085,-0.2695,0.001,-0.225,0.289,0.16
-0.003,-0.0505,-0.048,0.0265,0.023,-0.049,-0.3205,-0.452,-0.4625,-0.3085,-0.269,0.0025,-0.222,0.289,0.161
0.002,-0.055,-0.058,0.0265,0.0305,-0.0565,-0.322,-0.451,-0.4595,-0.3065,-0.267,0.003,-0.22,0.282,0.168
-0.0055,-0.0615,-0.057,0.0335,0.026,-0.059,-0.3195,-0.4485,-0.4605,-0.3055,-0.2665,0.0025,-0.2215,0.279,0.172
-0.0105,-0.0715,-0.061,0.041,0.0255,-0.066,-0.319,-0.4535,-0.463,-0.308,-0.2685,0.0035,-0.22,0.281,0.1735
-0.0135,-0.078,-0.0655,0.0455,0.0265,-0.0715,-0.3145,-0.4485,-0.459,-0.3075,-0.2695,0.0035,-0.221,0.2805,0.1715
-0.0195,-0.08,-0.0615,0.05,0.0215,-0.0705,-0.307,-0.439,-0.452,-0.303,-0.27,0.0015,-0.222,0.283,0.165
-0.0245,-0.077,-0.0525,0.0505,0.014,-0.0645,-0.2995,-0.4325,-0.445,-0.297,-0.266,0.0055,-0.222,0.286,0.157
-0.026,-0.071,-0.0455,0.0485,0.01,-0.058,-0.294,-0.4275,-0.439,-0.292,-0.2625,0.01,-0.222,0.2855,0.151
-0.02,-0.0695,-0.0505,0.0445,0.0155,-0.06,-0.294,-0.4255,-0.4395,-0.2895,-0.262,0.009,-0.222,0.277,0.151
-0.013,-0.0765,-0.064,0.0445,0.0255,-0.07,-0.2885,-0.4205,-0.4375,-0.2895,-0.2635,0.008,-0.2215,0.274,0.151
-0.0125,-0.085,-0.0735,0.0485,0.031,-0.079,-0.291,-0.424,-0.4325,-0.289,-0.2625,0.008,-0.2185,0.2705,0.149
-0.014,-0.084,-0.071,0.049,0.0285,-0.077,-0.2905,-0.4235,-0.4295,-0.285,-0.2605,0.01,-0.2165,0.263,0.1445
-0.0115,-0.0855,-0.074,0.0485,0.0315,-0.08,-0.2915,-0.427,-0.4375,-0.291,-0.263,0.009,-0.2145,0.25,0.147
-0.0115,-0.088,-0.077,0.0495,0.033,-0.0825,-0.2975,-0.4305,-0.4445,-0.297,-0.266,0.006,-0.2155,0.245,0.1495
-0.0185,-0.09,-0.072,0.054,0.027,-0.0805,-0.2935,-0.428,-0.4455,-0.2995,-0.2725,0.001,-0.2235,0.249,0.152
-0.026,-0.0995,-0.074,0.063,0.024,-0.0865,-0.296,-0.443,-0.4585,-0.3115,-0.283,-0.0085,-0.232,0.2435,0.1565
-0.038,-0.1085,-0.071,0.0735,0.0165,-0.0895,-0.296,-0.4445,-0.465,-0.318,-0.291,-0.0175,-0.2405,0.2455,0.162
-0.0435,-0.111,-0.0675,0.077,0.0125,-0.089,-0.2915,-0.438,-0.4615,-0.3185,-0.295,-0.0225,-0.2475,0.2425,0.1645
-0.044,-0.1125,-0.069,0.078,0.013,-0.0905,-0.297,-0.4475,-0.469,-0.325,-0.3015,-0.028,-0.2525,0.2365,0.165
-0.0505,-0.1155,-0.065,0.083,0.0075,-0.09,-0.295,-0.447,-0.471,-0.3275,-0.3055,-0.0335,-0.2575,0.2485,0.164
-0.0525,-0.1135,-0.0615,0.0825,0.005,-0.087,-0.292,-0.444,-0.4705,-0.3315,-0.3075,-0.0375,-0.2605,0.253,0.161
-0.055,-0.1195,-0.065,0.087,0.0055,-0.092,-0.2925,-0.446,-0.472,-0.3345,-0.312,-0.042,-0.2645,0.2475,0.163
-0.056,-0.1255,-0.07,0.0905,0.0075,-0.0975,-0.2885,-0.441,-0.471,-0.334,-0.313,-0.046,-0.269,0.2405,0.1655
-0.06,-0.1315,-0.072,0.096,0.006,-0.1015,-0.2865,-0.4425,-0.4735,-0.337,-0.317,-0.0495,-0.2725,0.23,0.166
-0.0615,-0.1395,-0.078,0.1005,0.0085,-0.1085,-0.2865,-0.4455,-0.475,-0.336,-0.3185,-0.0505,-0.273,0.224,0.1655
-0.059,-0.1405,-0.082,0.0995,0.012,-0.111,-0.291,-0.45,-0.4765,-0.34,-0.323,-0.0525,-0.2715,0.2205,0.168
-0.0645,-0.1405,-0.076,0.1025,0.0065,-0.108,-0.2945,-0.4515,-0.48,-0.345,-0.3255,-0.0545,-0.2725,0.2225,0.167
-0.0645,-0.1395,-0.075,0.102,0.0055,-0.1075,-0.2935,-0.453,-0.486,-0.3485,-0.3265,-0.0555,-0.2745,0.226,0.165
-0.0635,-0.145,-0.081,0.104,0.0095,-0.113,-0.295,-0.459,-0.4885,-0.351,-0.33,-0.055,-0.272,0.22,0.167
-0.065,-0.1495,-0.084,0.107,0.01,-0.117,-0.2885,-0.4505,-0.4845,-0.348,-0.325,-0.053,-0.2695,0.22,0.1675
-0.0605,-0.144,-0.0835,0.1025,0.012,-0.114,-0.285,-0.4475,-0.4815,-0.3465,-0.3225,-0.0515,-0.2695,0.2215,0.165
-0.0525,-0.132,-0.079,0.0925,0.014,-0.1055,-0.2905,-0.4515,-0.4815,-0.346,-0.3225,-0.0525,-0.269,0.2185,0.1645
-0.0535,-0.1255,-0.0725,0.0895,0.0095,-0.099,-0.2905,-0.45,-0.488,-0.3505,-0.325,-0.0545,-0.2705,0.2205,0.164
-0.0565,-0.1245,-0.069,0.0905,0.0065,-0.0965,-0.2915,-0.452,-0.4905,-0.3525,-0.3265,-0.054,-0.27,0.222,0.162
-0.056,-0.1265,-0.071,0.0915,0.0075,-0.0985,-0.2945,-0.454,-0.49,-0.3515,-0.327,-0.055,-0.2705,0.2245,0.1645
-0.0595,-0.1345,-0.075,0.097,0.0085,-0.1045,-0.2945,-0.4545,-0.4905,-0.3525,-0.329,-0.055,-0.2705,0.221,0.1675
-0.058,-0.142,-0.084,0.1,0.0135,-0.113,-0.293,-0.4525,-0.4875,-0.3505,-0.3245,-0.0525,-0.2675,0.215,0.17
-0.0515,-0.141,-0.089,0.096,0.019,-0.1145,-0.292,-0.4505,-0.4845,-0.346,-0.3185,-0.048,-0.2655,0.2115,0.1705
-0.0485,-0.141,-0.092,0.0945,0.022,-0.1165,-0.29,-0.4475,-0.4805,-0.3425,-0.313,-0.0425,-0.261,0.2025,0.171
-0.0505,-0.146,-0.0955,0.0985,0.023,-0.1205,-0.2855,-0.444,-0.4785,-0.3435,-0.312,-0.041,-0.2585,0.201,0.17
-0.059,-0.1525,-0.0935,0.106,0.0175,-0.1225,-0.2885,-0.4475,-0.483,-0.348,-0.3155,-0.043,-0.259,0.2085,0.1685
-0.0625,-0.16,-0.0975,0.111,0.018,-0.129,-0.289,-0.452,-0.486,-0.351,-0.3195,-0.045,-0.26,0.2025,0.1715
-0.0575,-0.16,-0.1025,0.109,0.023,-0.1315,-0.2855,-0.4475,-0.484,-0.3475,-0.3185,-0.0445,-0.262,0.197,0.1745
-0.06,-0.1645,-0.1045,0.1125,0.0225,-0.1345,-0.2895,-0.451,-0.487,-0.349,-0.32,-0.046,-0.262,0.1915,0.176
-0.061,-0.1675,-0.107,0.1145,0.0235,-0.1375,-0.2925,-0.455,-0.487,-0.352,-0.3215,-0.0495,-0.263,0.1895,0.176
-0.06,-0.164,-0.1045,0.112,0.023,-0.134,-0.295,-0.4545,-0.4895,-0.3535,-0.3225,-0.052,-0.264,0.1925,0.1745
-0.0655,-0.163,-0.0975,0.1145,0.0165,-0.13,-0.2955,-0.458,-0.4915,-0.3535,-0.327,-0.0575,-0.267,0.197,0.1715
-0.071,-0.162,-0.091,0.1165,0.0105,-0.1265,-0.294,-0.4555,-0.4875,-0.3545,-0.3285,-0.0595,-0.2675,0.2065,0.169
-0.072,-0.1585,-0.0865,0.1155,0.0075,-0.1225,-0.294,-0.4565,-0.4885,-0.354,-0.3275,-0.057,-0.267,0.208,0.1665
-0.071,-0.163,-0.0925,0.117,0.0115,-0.128,-0.2905,-0.453,-0.4875,-0.352,-0.3255,-0.058,-0.27,0.2055,0.168
-0.0695,-0.1675,-0.098,0.1185,0.0145,-0.1325,-0.289,-0.45,-0.484,-0.351,-0.326,-0.0565,-0.2675,0.2055,0.1705
-0.0715,-0.158,-0.0865,0.115,0.008,-0.122,-0.2875,-0.449,-0.483,-0.3495,-0.326,-0.0535,-0.266,0.208,0.165
-0.0705,-0.1525,-0.082,0.1115,0.006,-0.1175,-0.29,-0.4495,-0.4865,-0.352,-0.324,-0.0505,-0.2625,0.204,0.164
-0.0695,-0.152,-0.0825,0.1105,0.007,-0.1175,-0.2925,-0.4545,-0.4885,-0.352,-0.322,-0.047,-0.258,0.207,0.163
-0.0735,-0.155,-0.0815,0.1145,0.0045,-0.1185,-0.292,-0.4545,-0.49,-0.353,-0.323,-0.0485,-0.2595,0.207,0.1625
-0.075,-0.1595,-0.0845,0.117,0.005,-0.122,-0.2895,-0.454,-0.4905,-0.3505,-0.321,-0.046,-0.2585,0.1985,0.1625
-0.071,-0.1625,-0.0915,0.117,0.0105,-0.127,-0.286,-0.449,-0.486,-0.346,-0.3175,-0.042,-0.2575,0.2015,0.164
-0.071,-0.167,-0.096,0.119,0.013,-0.1315,-0.2885,-0.4485,-0.4855,-0.348,-0.3185,-0.0435,-0.2595,0.2035,0.167
-0.0775,-0.1695,-0.092,0.123,0.008,-0.1305,-0.285,-0.4475,-0.4825,-0.3455,-0.319,-0.0445,-0.2615,0.2035,0.167
-0.0765,-0.169,-0.093,0.1225,0.0085,-0.131,-0.283,-0.4455,-0.481,-0.3445,-0.321,-0.045,-0.262,0.2015,0.1685
-0.073,-0.1665,-0.0935,0.1195,0.0105,-0.13,-0.2875,-0.446,-0.4825,-0.346,-0.323,-0.0475,-0.2645,0.2,0.1685
-0.0725,-0.173,-0.1005,0.1225,0.0145,-0.1365,-0.2845,-0.4455,-0.4845,-0.345,-0.3235,-0.0485,-0.2655,0.1975,0.17
-0.072,-0.1805,-0.1085,0.1265,0.0185,-0.1445,-0.287,-0.4485,-0.4835,-0.345,-0.323,-0.05,-0.266,0.193,0.1715
-0.072,-0.1835,-0.1115,0.128,0.02,-0.1475,-0.287,-0.444,-0.4795,-0.346,-0.325,-0.0535,-0.2675,0.1895,0.172
-0.074,-0.1895,-0.1155,0.1315,0.021,-0.1525,-0.2825,-0.445,-0.483,-0.349,-0.3325,-0.0595,-0.272,0.1845,0.173
-0.073,-0.1875,-0.1145,0.1305,0.021,-0.151,-0.2845,-0.446,-0.484,-0.3515,-0.3345,-0.0635,-0.278,0.1875,0.169
-0.074,-0.1865,-0.1125,0.1305,0.02,-0.1495,-0.2825,-0.44,-0.482,-0.3525,-0.335,-0.0615,-0.277,0.186,0.1675
-0.077,-0.189,-0.112,0.133,0.018,-0.151,-0.2845,-0.4425,-0.4835,-0.354,-0.3355,-0.0615,-0.2765,0.178,0.1665
-0.0755,-0.1865,-0.111,0.131,0.0185,-0.149,-0.284,-0.441,-0.4815,-0.353,-0.3325,-0.0605,-0.2745,0.1825,0.1665
-0.0775,-0.1845,-0.107,0.131,0.0155,-0.146,-0.2795,-0.4355,-0.478,-0.3495,-0.331,-0.0595,-0.2735,0.189,0.1675
-0.0785,-0.187,-0.1085,0.1325,0.0155,-0.148,-0.277,-0.4355,-0.4795,-0.3515,-0.3335,-0.063,-0.2745,0.1905,0.169
-0.075,-0.187,-0.112,0.131,0.019,-0.1495,-0.2795,-0.436,-0.481,-0.3525,-0.337,-0.0635,-0.2715,0.1865,0.169
-0.075,-0.184,-0.109,0.1295,0.0175,-0.1465,-0.279,-0.4355,-0.48,-0.352,-0.338,-0.0665,-0.272,0.1885,0.166
-0.075,-0.183,-0.108,0.129,0.017,-0.1455,-0.2725,-0.4325,-0.481,-0.3565,-0.3405,-0.069,-0.273,0.1875,0.1655
-0.073,-0.187,-0.114,0.13,0.021,-0.1505,-0.265,-0.4265,-0.4795,-0.3585,-0.344,-0.0725,-0.274,0.174,0.164
-0.076,-0.197,-0.121,0.1365,0.023,-0.159,-0.252,-0.416,-0.475,-0.36,-0.3485,-0.0775,-0.277,0.1635,0.1615
-0.083,-0.2085,-0.1255,0.146,0.022,-0.167,-0.233,-0.401,-0.4695,-0.363,-0.3545,-0.0825,-0.282,0.152,0.161
-0.088,-0.222,-0.134,0.155,0.0235,-0.178,-0.2155,-0.3805,-0.4635,-0.3665,-0.3625,-0.092,-0.2885,0.1405,0.159
-0.09,-0.235,-0.145,0.1625,0.028,-0.19,-0.1985,-0.366,-0.4615,-0.3765,-0.373,-0.1015,-0.295,0.1285,0.159
-0.0885,-0.2445,-0.156,0.1665,0.034,-0.2,-0.1865,-0.354,-0.461,-0.3845,-0.385,-0.1115,-0.301,0.1165,0.159
-0.0925,-0.2515,-0.159,0.172,0.034,-0.2055,-0.1745,-0.3325,-0.451,-0.3885,-0.395,-0.12,-0.3055,0.1085,0.154
-0.0945,-0.257,-0.1625,0.176,0.0345,-0.21,-0.156,-0.3075,-0.431,-0.3795,-0.3915,-0.1205,-0.305,0.0995,0.1455
-0.093,-0.2675,-0.1745,0.18,0.0415,-0.221,-0.135,-0.2795,-0.414,-0.3705,-0.3885,-0.1215,-0.305,0.0885,0.137
-0.0995,-0.281,-0.1815,0.19,0.0415,-0.231,-0.104,-0.2425,-0.3895,-0.357,-0.3855,-0.124,-0.307,0.08,0.118
-0.102,-0.2895,-0.1875,0.196,0.0435,-0.2385,-0.0765,-0.2055,-0.3555,-0.331,-0.3705,-0.117,-0.3005,0.07,0.0995
-0.0965,-0.2885,-0.192,0.1925,0.0485,-0.2405,-0.0555,-0.1755,-0.333,-0.317,-0.364,-0.114,-0.2975,0.0625,0.0875
-0.088,-0.277,-0.189,0.1825,0.051,-0.233,-0.034,-0.1445,-0.302,-0.2905,-0.3465,-0.1055,-0.289,0.068,0.0655
-0.0785,-0.274,-0.1955,0.176,0.059,-0.2345,-0.017,-0.1155,-0.2665,-0.2555,-0.322,-0.09,-0.2705,0.0665,0.0495
-0.0715,-0.2845,-0.213,0.1775,0.0715,-0.2485,0.006,-0.0735,-0.2205,-0.215,-0.297,-0.077,-0.25,0.052,0.031
-0.059,-0.287,-0.228,0.173,0.085,-0.2575,0.029,-0.022,-0.157,-0.159,-0.257,-0.0555,-0.2215,0.0415,0.006
-0.04,-0.2855,-0.2455,0.163,0.103,-0.2655,0.055,0.038,-0.084,-0.0915,-0.211,-0.0255,-0.1835,0.034,-0.0185
-0.02,-0.2805,-0.2605,0.1505,0.1205,-0.2705,0.088,0.101,-0.0095,-0.026,-0.1685,0.001,-0.149,0.0295,-0.051
-0.002,-0.2735,-0.2715,0.138,0.135,-0.2725,0.1215,0.16,0.056,0.03,-0.1325,0.0195,-0.1225,0.029,-0.083
0.0095,-0.269,-0.2785,0.13,0.144,-0.2735,0.1685,0.23,0.1325,0.0985,-0.0855,0.046,-0.092,0.0305,-0.117
0.025,-0.261,-0.2865,0.118,0.1555,-0.2735,0.208,0.2965,0.216,0.1775,-0.027,0.083,-0.0515,0.026,-0.1505
0.049,-0.258,-0.307,0.1045,0.178,-0.2825,0.2365,0.3595,0.3025,0.266,0.037,0.124,-0.0025,0.021,-0.1765
0.0755,-0.248,-0.3235,0.0865,0.1995,-0.286,0.281,0.4375,0.4085,0.3715,0.115,0.176,0.053,0.0265,-0.212
0.106,-0.2315,-0.3375,0.0625,0.222,-0.2845,0.343,0.544,0.548,0.5065,0.213,0.2435,0.121,0.04,-0.2615
0.1285,-0.2065,-0.335,0.039,0.232,-0.271,0.3995,0.6405,0.6885,0.6495,0.3185,0.3155,0.19,0.061,-0.3175
0.164,-0.167,-0.3315,0.0015,0.2475,-0.249,0.4225,0.7255,0.834,0.8015,0.4315,0.395,0.2695,0.0835,-0.371
0.202,-0.135,-0.337,-0.034,0.27,-0.236,0.4555,0.827,1.001,0.965,0.543,0.471,0.3475,0.1065,-0.4255
0.232,-0.1045,-0.337,-0.064,0.285,-0.221,0.505,0.939,1.175,1.1265,0.6505,0.5395,0.4175,0.1355,-0.4855
0.265,-0.082,-0.3475,-0.092,0.3065,-0.2145,0.549,1.0775,1.371,1.2935,0.7565,0.607,0.491,0.1565,-0.543
0.289,-0.0615,-0.351,-0.114,0.3205,-0.206,0.602,1.202,1.548,1.442,0.846,0.665,0.549,0.1735,-0.6025
0.3125,-0.0455,-0.359,-0.134,0.336,-0.2025,0.64,1.3195,1.72,1.571,0.923,0.7155,0.603,0.178,-0.649
0.326,-0.0345,-0.3605,-0.146,0.3435,-0.1975,0.6575,1.4145,1.869,1.6775,0.985,0.756,0.65,0.188,-0.6805
0.3415,0.006,-0.336,-0.1735,0.339,-0.165,0.646,1.47,1.987,1.784,1.059,0.81,0.701,0.223,-0.717
0.3665,0.058,-0.309,-0.212,0.338,-0.1255,0.609,1.492,2.071,1.8675,1.129,0.8675,0.7505,0.267,-0.746
0.387,0.1145,-0.273,-0.2505,0.3305,-0.079,0.5325,1.421,2.0525,1.8835,1.168,0.9125,0.78,0.326,-0.7485
0.4015,0.164,-0.2375,-0.283,0.3195,-0.0365,0.462,1.332,2.008,1.867,1.19,0.9485,0.7945,0.373,-0.7295
0.3955,0.19,-0.2055,-0.2925,0.3005,-0.0075,0.4085,1.205,1.8955,1.7685,1.1525,0.944,0.764,0.407,-0.6895
0.3785,0.212,-0.1665,-0.295,0.273,0.0225,0.3305,1.0325,1.7165,1.6155,1.0785,0.9205,0.714,0.441,-0.6305
0.3485,0.195,-0.154,-0.2715,0.2515,0.0205,0.2555,0.847,1.506,1.4005,0.946,0.8505,0.625,0.4345,-0.5515
0.305,0.1335,-0.1715,-0.2195,0.2385,-0.0185,0.191,0.6485,1.253,1.1225,0.758,0.7355,0.496,0.393,-0.4575
0.2755,0.086,-0.19,-0.1805,0.233,-0.052,0.124,0.4765,1.0225,0.8795,0.599,0.6395,0.392,0.362,-0.3705
0.248,0.049,-0.1995,-0.148,0.224,-0.0755,0.0335,0.2695,0.7585,0.64,0.458,0.5615,0.301,0.3425,-0.2805
0.2125,0.0425,-0.171,-0.128,0.192,-0.0645,-0.066,0.0445,0.475,0.424,0.3515,0.5105,0.2185,0.354,-0.2055
0.1825,0.0745,-0.108,-0.1285,0.1455,-0.0165,-0.1645,-0.1565,0.225,0.2585,0.2755,0.479,0.145,0.4005,-0.1625
0.1615,0.1005,-0.061,-0.131,0.1115,0.02,-0.2765,-0.3785,-0.0375,0.0965,0.202,0.4455,0.08,0.4355,-0.1095
0.157,0.105,-0.053,-0.131,0.1055,0.0255,-0.395,-0.5915,-0.281,-0.0675,0.117,0.4035,0.0275,0.441,-0.0295
0.1455,0.087,-0.059,-0.116,0.1025,0.014,-0.505,-0.778,-0.512,-0.233,0.024,0.354,-0.0235,0.4205,0.0605
0.1285,0.0535,-0.0755,-0.091,0.1025,-0.011,-0.604,-0.9535,-0.745,-0.384,-0.0595,0.307,-0.066,0.388,0.1535
0.1175,0.024,-0.0935,-0.071,0.106,-0.035,-0.675,-1.0725,-0.9185,-0.502,-0.1285,0.267,-0.096,0.362,0.239
0.0895,0.012,-0.0775,-0.051,0.084,-0.0325,-0.741,-1.235,-1.152,-0.648,-0.205,0.225,-0.1435,0.357,0.3185
0.063,0.0165,-0.047,-0.04,0.0555,-0.015,-0.809,-1.3955,-1.3495,-0.763,-0.265,0.195,-0.1875,0.3755,0.379
0.049,0.0375,-0.0125,-0.043,0.031,0.0125,-0.851,-1.441,-1.3885,-0.781,-0.2765,0.194,-0.1955,0.409,0.4055
0.0375,0.047,0.0085,-0.042,0.0145,0.0275,-0.8745,-1.45,-1.3925,-0.7825,-0.288,0.1865,-0.2,0.4195,0.424
0.0275,0.044,0.016,-0.0355,0.006,0.0295,-0.883,-1.4315,-1.3625,-0.767,-0.2905,0.1825,-0.1985,0.4155,0.431
0.0205,0.0475,0.0265,-0.034,-0.0025,0.037,-0.909,-1.401,-1.3165,-0.736,-0.281,0.1875,-0.188,0.422,0.434
0.018,0.049,0.031,-0.0335,-0.0065,0.04,-0.926,-1.36,-1.263,-0.714,-0.282,0.1815,-0.185,0.422,0.4435
0.022,0.043,0.0205,-0.0325,0.001,0.0315,-0.9215,-1.304,-1.2025,-0.6865,-0.2795,0.176,-0.176,0.407,0.453
0.024,0.023,-0.0015,-0.0235,0.0135,0.011,-0.92,-1.2605,-1.1695,-0.682,-0.2945,0.1575,-0.173,0.3745,0.4705
0.021,-0.0225,-0.044,0.0005,0.033,-0.033,-0.91,-1.2255,-1.1575,-0.708,-0.334,0.116,-0.1855,0.3275,0.5
0.0205,-0.0785,-0.099,0.029,0.0605,-0.0885,-0.892,-1.186,-1.139,-0.7275,-0.3695,0.0795,-0.1885,0.266,0.5315
0.0195,-0.1125,-0.1315,0.0465,0.076,-0.122,-0.8705,-1.149,-1.1235,-0.745,-0.4,0.0485,-0.1965,0.2185,0.5515
0.015,-0.1295,-0.1445,0.0575,0.08,-0.137,-0.8465,-1.125,-1.1195,-0.757,-0.424,0.0215,-0.214,0.1975,0.561
0.0135,-0.1485,-0.1615,0.0675,0.088,-0.155,-0.8235,-1.1035,-1.0995,-0.75,-0.431,0.01,-0.216,0.1775,0.5605
0.0135,-0.1575,-0.1705,0.072,0.0925,-0.1645,-0.7955,-1.067,-1.0665,-0.731,-0.4255,0.0095,-0.2115,0.1685,0.5495
0.008,-0.1535,-0.161,0.073,0.085,-0.1575,-0.7605,-1.023,-1.032,-0.71,-0.42,0.0075,-0.2135,0.1795,0.531
-0.003,-0.1525,-0.1495,0.0775,0.074,-0.151,-0.7245,-0.9845,-0.9995,-0.6965,-0.427,-0.006,-0.228,0.1835,0.5075
-0.0105,-0.161,-0.1505,0.086,0.0705,-0.1555,-0.676,-0.925,-0.9475,-0.666,-0.4225,-0.014,-0.234,0.176,0.475
-0.01,-0.169,-0.159,0.0895,0.075,-0.164,-0.6275,-0.8575,-0.8865,-0.628,-0.4105,-0.0145,-0.2245,0.1685,0.45
-0.007,-0.1635,-0.1565,0.0855,0.075,-0.16,-0.5835,-0.798,-0.8295,-0.5925,-0.4,-0.014,-0.218,0.174,0.427
-0.005,-0.156,-0.151,0.081,0.0735,-0.154,-0.539,-0.7375,-0.7725,-0.5535,-0.3865,-0.0115,-0.209,0.1825,0.4015
-0.0075,-0.152,-0.144,0.08,0.0685,-0.148,-0.494,-0.6765,-0.715,-0.514,-0.372,-0.0085,-0.201,0.1935,0.3745
-0.0055,-0.1385,-0.133,0.072,0.064,-0.1355,-0.4525,-0.6205,-0.663,-0.474,-0.35,0.0005,-0.1945,0.21,0.3415
0.002,-0.1175,-0.1195,0.0575,0.0615,-0.1185,-0.4185,-0.5755,-0.62,-0.439,-0.3265,0.0145,-0.184,0.2235,0.3115
-0.001,-0.114,-0.113,0.0575,0.0565,-0.1135,-0.3895,-0.542,-0.5885,-0.416,-0.3145,0.0185,-0.184,0.2275,0.2855
-0.009,-0.124,-0.115,0.0665,0.0535,-0.1195,-0.36,-0.5095,-0.56,-0.399,-0.312,0.0125,-0.19,0.2215,0.2635
-0.0185,-0.139,-0.1205,0.0785,0.0515,-0.13,-0.3295,-0.4755,-0.5325,-0.385,-0.31,0.005,-0.1965,0.212,0.2475
-0.0255,-0.1545,-0.1295,0.09,0.0525,-0.142,-0.309,-0.4515,-0.513,-0.377,-0.3135,-0.0075,-0.2065,0.198,0.233
-0.03,-0.153,-0.123,0.0915,0.047,-0.138,-0.294,-0.436,-0.496,-0.3685,-0.316,-0.016,-0.214,0.2005,0.2175
-0.0345,-0.1485,-0.114,0.0915,0.0405,-0.131,-0.2865,-0.428,-0.491,-0.364,-0.3185,-0.021,-0.221,0.202,0.2065
-0.035,-0.1475,-0.113,0.091,0.0395,-0.13,-0.273,-0.4095,-0.477,-0.357,-0.319,-0.0265,-0.2285,0.199,0.193
-0.0425,-0.153,-0.1105,0.098,0.0345,-0.1315,-0.2635,-0.3955,-0.4645,-0.3515,-0.3215,-0.0325,-0.2345,0.197,0.186
-0.05,-0.1625,-0.1125,0.1065,0.032,-0.1375,-0.263,-0.3945,-0.4625,-0.351,-0.325,-0.0405,-0.24,0.1925,0.1845
-0.053,-0.173,-0.12,0.113,0.034,-0.1465,-0.2575,-0.3885,-0.455,-0.3445,-0.325,-0.045,-0.244,0.19,0.1795
-0.058,-0.1805,-0.1225,0.119,0.033,-0.1515,-0.254,-0.3815,-0.4475,-0.3395,-0.3235,-0.0445,-0.2475,0.1865,0.176
-0.0595,-0.1805,-0.1215,0.12,0.0315,-0.151,-0.25,-0.3795,-0.4425,-0.336,-0.3205,-0.043,-0.2485,0.189,0.174
-0.0585,-0.174,-0.1155,0.116,0.029,-0.1445,-0.2505,-0.378,-0.44,-0.332,-0.317,-0.0395,-0.248,0.193,0.1715
-0.0565,-0.1725,-0.116,0.1145,0.0305,-0.1445,-0.249,-0.3775,-0.439,-0.3305,-0.316,-0.0405,-0.2505,0.1895,0.1705
-0.0545,-0.1765,-0.122,0.115,0.0345,-0.149,-0.248,-0.3785,-0.44,-0.332,-0.3165,-0.0405,-0.251,0.187,0.1735
-0.056,-0.178,-0.1215,0.117,0.0335,-0.1495,-0.2505,-0.375,-0.4375,-0.3315,-0.3155,-0.0415,-0.2515,0.1865,0.1755
-0.063,-0.187,-0.124,0.125,0.031,-0.1555,-0.248,-0.3755,-0.438,-0.3315,-0.3205,-0.0465,-0.255,0.178,0.176
-0.0605,-0.1865,-0.126,0.1235,0.033,-0.1565,-0.247,-0.3725,-0.4365,-0.3305,-0.3215,-0.0465,-0.257,0.177,0.1765
-0.0555,-0.1835,-0.128,0.1195,0.0365,-0.1555,-0.2475,-0.371,-0.4355,-0.3305,-0.32,-0.0455,-0.257,0.182,0.1785
-0.059,-0.179,-0.12,0.119,0.031,-0.1495,-0.2465,-0.3685,-0.4365,-0.33,-0.3195,-0.0465,-0.2565,0.1895,0.1775
-0.0675,-0.1725,-0.1045,0.12,0.019,-0.1385,-0.2435,-0.3625,-0.4295,-0.324,-0.3155,-0.0435,-0.2565,0.1915,0.1725
-0.0665,-0.1685,-0.1015,0.1175,0.018,-0.135,-0.241,-0.361,-0.426,-0.3225,-0.3135,-0.0435,-0.257,0.1885,0.1705
-0.055,-0.167,-0.112,0.111,0.029,-0.1395,-0.239,-0.3615,-0.4255,-0.3235,-0.315,-0.0485,-0.2575,0.1845,0.1715
-0.056,-0.171,-0.1155,0.1135,0.0305,-0.1435,-0.239,-0.361,-0.4235,-0.3225,-0.317,-0.049,-0.2575,0.18,0.1735
-0.06,-0.168,-0.108,0.1135,0.0245,-0.1375,-0.2385,-0.3595,-0.422,-0.3205,-0.3165,-0.0485,-0.2565,0.187,0.1715
-0.0615,-0.161,-0.0995,0.111,0.0195,-0.1305,-0.2325,-0.357,-0.417,-0.3145,-0.3115,-0.0475,-0.2545,0.1845,0.1665
-0.058,-0.152,-0.094,0.105,0.0185,-0.123,-0.2295,-0.355,-0.415,-0.311,-0.307,-0.0435,-0.2515,0.1875,0.162
-0.0605,-0.152,-0.0915,0.1065,0.016,-0.122,-0.224,-0.3525,-0.414,-0.3125,-0.311,-0.05,-0.2535,0.1975,0.1595
-0.0655,-0.1585,-0.0935,0.112,0.0145,-0.126,-0.223,-0.3515,-0.414,-0.3145,-0.3155,-0.058,-0.26,0.191,0.16
-0.057,-0.1595,-0.1025,0.108,0.0235,-0.131,-0.2285,-0.3575,-0.418,-0.3195,-0.319,-0.0625,-0.2625,0.1815,0.163
-0.061,-0.1665,-0.1055,0.114,0.023,-0.136,-0.2295,-0.3565,-0.416,-0.3195,-0.3225,-0.064,-0.2635,0.1795,0.163
-0.0705,-0.1735,-0.103,0.122,0.0165,-0.138,-0.2285,-0.348,-0.413,-0.3165,-0.322,-0.0655,-0.2645,0.187,0.1585
-0.069,-0.1715,-0.1025,0.12,0.017,-0.137,-0.225,-0.348,-0.4115,-0.317,-0.3225,-0.0665,-0.2645,0.1925,0.155
-0.062,-0.1665,-0.1045,0.1145,0.0215,-0.1355,-0.2245,-0.345,-0.406,-0.3135,-0.3195,-0.0615,-0.2625,0.1925,0.155
-0.0655,-0.1765,-0.111,0.121,0.0235,-0.144,-0.2245,-0.344,-0.4035,-0.313,-0.321,-0.0625,-0.2645,0.184,0.1585
-0.072,-0.187,-0.115,0.1295,0.022,-0.151,-0.225,-0.345,-0.4065,-0.318,-0.3285,-0.0675,-0.2695,0.1765,0.162
-0.068,-0.1885,-0.1205,0.1285,0.0265,-0.1545,-0.227,-0.3435,-0.4065,-0.321,-0.3335,-0.071,-0.27,0.172,0.1645
-0.065,-0.191,-0.126,0.128,0.031,-0.1585,-0.2275,-0.344,-0.4045,-0.323,-0.335,-0.0715,-0.2705,0.167,0.166
-0.065,-0.1885,-0.124,0.1265,0.03,-0.156,-0.2255,-0.34,-0.4015,-0.3205,-0.3335,-0.072,-0.2705,0.171,0.1645
-0.066,-0.184,-0.1185,0.125,0.027,-0.151,-0.225,-0.3385,-0.4,-0.319,-0.334,-0.073,-0.27,0.176,0.1625
-0.064,-0.179,-0.1145,0.1215,0.026,-0.1465,-0.224,-0.338,-0.399,-0.3195,-0.335,-0.0725,-0.272,0.177,0.161
-0.0615,-0.1745,-0.113,0.118,0.026,-0.144,-0.221,-0.3335,-0.3955,-0.3195,-0.3375,-0.0745,-0.274,0.1785,0.1575
-0.062,-0.176,-0.114,0.119,0.0265,-0.145,-0.2175,-0.3315,-0.3945,-0.319,-0.338,-0.074,-0.2735,0.1825,0.1585
-0.0625,-0.1795,-0.117,0.121,0.028,-0.1485,-0.221,-0.331,-0.3935,-0.3205,-0.339,-0.0735,-0.2715,0.181,0.1615
-0.0645,-0.179,-0.1145,0.1215,0.0255,-0.1465,-0.2225,-0.331,-0.392,-0.318,-0.3385,-0.0715,-0.2685,0.182,0.1565
-0.0635,-0.172,-0.1085,0.1175,0.023,-0.14,-0.2245,-0.332,-0.392,-0.3135,-0.333,-0.066,-0.262,0.186,0.1515
-0.059,-0.165,-0.106,0.112,0.024,-0.1355,-0.228,-0.328,-0.3845,-0.309,-0.329,-0.064,-0.259,0.192,0.1495
-0.0565,-0.162,-0.1055,0.1095,0.025,-0.134,-0.222,-0.318,-0.377,-0.304,-0.3265,-0.0615,-0.2565,0.1895,0.149
-0.0515,-0.1625,-0.111,0.107,0.0305,-0.137,-0.2205,-0.3185,-0.3775,-0.3045,-0.326,-0.06,-0.255,0.181,0.1505
-0.044,-0.165,-0.121,0.1045,0.039,-0.143,-0.2185,-0.3175,-0.3775,-0.307,-0.325,-0.0585,-0.2565,0.182,0.1515
-0.045,-0.167,-0.1215,0.106,0.039,-0.144,-0.2185,-0.3175,-0.378,-0.3125,-0.327,-0.0585,-0.2575,0.1795,0.1525
-0.0555,-0.1755,-0.12,0.1155,0.033,-0.1475,-0.2165,-0.318,-0.38,-0.3135,-0.329,-0.059,-0.26,0.174,0.153
-0.0625,-0.179,-0.1165,0.121,0.0275,-0.148,-0.2155,-0.313,-0.378,-0.31,-0.328,-0.0565,-0.2595,0.173,0.15
-0.0605,-0.177,-0.1165,0.1185,0.0285,-0.1465,-0.218,-0.316,-0.378,-0.308,-0.328,-0.0565,-0.257,0.1775,0.149
-0.0585,-0.1855,-0.127,0.122,0.035,-0.156,-0.216,-0.3155,-0.3775,-0.309,-0.3245,-0.0575,-0.2575,0.1725,0.1515
-0.061,-0.192,-0.1315,0.1265,0.036,-0.162,-0.2135,-0.308,-0.3715,-0.3065,-0.322,-0.0595,-0.2575,0.173,0.151
-0.0675,-0.1985,-0.1315,0.133,0.0325,-0.165,-0.212,-0.306,-0.37,-0.303,-0.3225,-0.063,-0.257,0.179,0.1525
-0.0675,-0.1995,-0.132,0.1335,0.0325,-0.1655,-0.21,-0.304,-0.3675,-0.299,-0.3205,-0.0635,-0.256,0.173,0.1535
-0.066,-0.196,-0.1305,0.131,0.0325,-0.163,-0.2025,-0.2975,-0.3615,-0.2925,-0.3185,-0.0615,-0.256,0.174,0.1515
-0.0625,-0.19,-0.128,0.126,0.033,-0.159,-0.203,-0.2975,-0.3615,-0.2915,-0.318,-0.063,-0.257,0.176,0.148
-0.058,-0.1835,-0.1255,0.121,0.034,-0.1545,-0.204,-0.301,-0.3605,-0.2905,-0.313,-0.06,-0.253,0.1765,0.146
-0.0605,-0.183,-0.1225,0.1215,0.032,-0.153,-0.205,-0.303,-0.3625,-0.289,-0.3115,-0.0575,-0.2505,0.1805,0.147
-0.06,-0.184,-0.1245,0.122,0.033,-0.154,-0.2045,-0.3015,-0.364,-0.2885,-0.313,-0.06,-0.2515,0.1755,0.1475
-0.0565,-0.186,-0.1295,0.1215,0.037,-0.1575,-0.2005,-0.2955,-0.356,-0.2825,-0.3105,-0.0585,-0.251,0.1665,0.1465
-0.0565,-0.1775,-0.121,0.117,0.0325,-0.149,-0.1995,-0.288,-0.3465,-0.2735,-0.306,-0.055,-0.249,0.1725,0.1425
-0.0585,-0.1705,-0.1125,0.1145,0.0275,-0.1415,-0.1995,-0.2865,-0.344,-0.273,-0.3065,-0.0535,-0.2475,0.176,0.1385
-0.055,-0.1705,-0.1155,0.113,0.0305,-0.143,-0.1995,-0.2875,-0.347,-0.2775,-0.312,-0.0575,-0.249,0.172,0.137
-0.0545,-0.1765,-0.122,0.1155,0.0345,-0.1495,-0.1995,-0.295,-0.353,-0.2835,-0.3185,-0.0665,-0.2535,0.1745,0.1365
-0.0505,-0.177,-0.1265,0.114,0.0385,-0.152,-0.198,-0.289,-0.349,-0.284,-0.3175,-0.063,-0.251,0.174,0.1355
-0.049,-0.178,-0.129,0.1135,0.0405,-0.1535,-0.194,-0.275,-0.337,-0.2785,-0.313,-0.0585,-0.2485,0.1715,0.1365
-0.0545,-0.1845,-0.13,0.1195,0.038,-0.157,-0.195,-0.2795,-0.339,-0.2795,-0.3125,-0.0595,-0.2495,0.1695,0.138
-0.058,-0.185,-0.127,0.1215,0.035,-0.156,-0.1935,-0.2775,-0.3365,-0.2755,-0.309,-0.056,-0.246,0.165,0.139
-0.0575,-0.185,-0.1275,0.1215,0.0355,-0.156,-0.192,-0.271,-0.3305,-0.271,-0.3055,-0.0545,-0.2445,0.165,0.136
-0.06,-0.184,-0.124,0.122,0.0325,-0.154,-0.1915,-0.27,-0.3305,-0.2715,-0.3045,-0.0535,-0.2465,0.169,0.1315
-0.062,-0.193,-0.131,0.1275,0.035,-0.162,-0.19,-0.265,-0.3255,-0.266,-0.3005,-0.0515,-0.2455,0.1665,0.1325
-0.0605,-0.2005,-0.14,0.1305,0.0405,-0.1705,-0.188,-0.261,-0.32,-0.262,-0.2955,-0.0475,-0.2445,0.16,0.136
-0.064,-0.2025,-0.1385,0.133,0.038,-0.1705,-0.1845,-0.2585,-0.318,-0.261,-0.2945,-0.048,-0.246,0.1575,0.1355
-0.062,-0.204,-0.142,0.133,0.0405,-0.173,-0.185,-0.2595,-0.315,-0.2605,-0.295,-0.0485,-0.245,0.1575,0.1365
-0.0585,-0.204,-0.1455,0.1315,0.044,-0.175,-0.187,-0.2595,-0.3175,-0.264,-0.298,-0.0495,-0.246,0.157,0.137
-0.056,-0.1985,-0.1425,0.127,0.044,-0.1705,-0.184,-0.254,-0.315,-0.263,-0.3,-0.05,-0.246,0.1605,0.132
-0.0555,-0.1935,-0.138,0.1245,0.0415,-0.1655,-0.18,-0.2515,-0.308,-0.2605,-0.2975,-0.0475,-0.2425,0.164,0.129
-0.055,-0.191,-0.136,0.123,0.041,-0.1635,-0.1795,-0.249,-0.307,-0.2605,-0.295,-0.0455,-0.241,0.1625,0.129
-0.052,-0.1905,-0.1385,0.1215,0.044,-0.1645,-0.178,-0.247,-0.307,-0.2595,-0.296,-0.046,-0.24,0.1635,0.1295
-0.0525,-0.1965,-0.144,0.1245,0.046,-0.17,-0.174,-0.245,-0.304,-0.2575,-0.2965,-0.047,-0.239,0.1635,0.129
-0.0525,-0.195,-0.1425,0.1235,0.0455,-0.1685,-0.178,-0.249,-0.3055,-0.26,-0.2985,-0.0485,-0.238,0.1675,0.1275
-0.0495,-0.1865,-0.1365,0.118,0.044,-0.1615,-0.18,-0.249,-0.3045,-0.2575,-0.297,-0.0465,-0.234,0.167,0.123
-0.046,-0.1765,-0.1305,0.111,0.043,-0.1535,-0.1755,-0.2385,-0.291,-0.2485,-0.288,-0.038,-0.228,0.175,0.1195
-0.052,-0.179,-0.127,0.1155,0.038,-0.153,-0.178,-0.24,-0.291,-0.25,-0.2895,-0.04,-0.2275,0.176,0.1215
-0.054,-0.1805,-0.127,0.1175,0.037,-0.154,-0.174,-0.234,-0.29,-0.2485,-0.289,-0.041,-0.2295,0.1745,0.1215
-0.051,-0.183,-0.132,0.117,0.041,-0.1575,-0.1675,-0.23,-0.285,-0.244,-0.2855,-0.039,-0.229,0.175,0.1215
-0.055,-0.1945,-0.1395,0.125,0.0425,-0.167,-0.1715,-0.234,-0.287,-0.2445,-0.288,-0.0425,-0.2295,0.162,0.125
-0.056,-0.194,-0.138,0.125,0.0415,-0.166,-0.1685,-0.2255,-0.279,-0.2435,-0.2875,-0.0435,-0.23,0.164,0.1245
-0.056,-0.1955,-0.1395,0.126,0.0425,-0.1675,-0.1615,-0.2225,-0.277,-0.244,-0.29,-0.046,-0.231,0.1665,0.124
-0.056,-0.197,-0.141,0.1265,0.043,-0.169,-0.162,-0.2215,-0.279,-0.2445,-0.2935,-0.0515,-0.2355,0.166,0.1215
-0.0565,-0.198,-0.1415,0.1275,0.043,-0.17,-0.159,-0.2145,-0.2745,-0.2425,-0.2925,-0.0545,-0.2405,0.166,0.12
-0.0555,-0.205,-0.149,0.13,0.0475,-0.177,-0.1545,-0.2095,-0.269,-0.239,-0.292,-0.0535,-0.241,0.1585,0.123
-0.0495,-0.204,-0.154,0.127,0.0525,-0.179,-0.1535,-0.2055,-0.2655,-0.2395,-0.2935,-0.0555,-0.2425,0.158,0.124
-0.0485,-0.2045,-0.156,0.127,0.054,-0.1805,-0.152,-0.203,-0.261,-0.2365,-0.291,-0.056,-0.243,0.1575,0.125
-0.0445,-0.2,-0.1555,0.1225,0.056,-0.178,-0.1495,-0.2005,-0.256,-0.2345,-0.288,-0.0545,-0.242,0.156,0.1235
-0.0385,-0.1945,-0.1565,0.1165,0.0595,-0.1755,-0.1525,-0.199,-0.257,-0.2365,-0.2885,-0.056,-0.2405,0.1575,0.12
-0.04,-0.1915,-0.152,0.116,0.0565,-0.172,-0.154,-0.195,-0.2545,-0.2335,-0.2855,-0.052,-0.2365,0.165,0.1185
-0.0425,-0.19,-0.1475,0.1165,0.053,-0.169,-0.1545,-0.1935,-0.2505,-0.23,-0.2815,-0.0495,-0.234,0.166,0.118
-0.0445,-0.193,-0.1485,0.119,0.0525,-0.171,-0.1515,-0.1915,-0.248,-0.227,-0.2795,-0.0485,-0.2335,0.1615,0.1185
-0.048,-0.1945,-0.1465,0.1215,0.0495,-0.1705,-0.1455,-0.1865,-0.2425,-0.221,-0.2775,-0.047,-0.2345,0.1655,0.1165
-0.049,-0.1895,-0.1405,0.1195,0.0465,-0.165,-0.1465,-0.1815,-0.239,-0.216,-0.275,-0.0475,-0.233,0.1665,0.1135
-0.046,-0.18,-0.1335,0.113,0.044,-0.1565,-0.143,-0.176,-0.23,-0.212,-0.2715,-0.043,-0.229,0.169,0.1085
-0.0455,-0.1755,-0.13,0.1105,0.0425,-0.1525,-0.14,-0.1745,-0.2225,-0.2075,-0.2705,-0.04,-0.2285,0.1725,0.1045
-0.0485,-0.1755,-0.127,0.112,0.0395,-0.151,-0.1405,-0.174,-0.227,-0.2095,-0.271,-0.042,-0.229,0.1715,0.102
-0.054,-0.1795,-0.126,0.117,0.0365,-0.153,-0.1345,-0.1725,-0.2255,-0.2105,-0.272,-0.042,-0.23,0.1725,0.1005
-0.0565,-0.1845,-0.1285,0.1205,0.0365,-0.1565,-0.133,-0.1685,-0.2195,-0.2075,-0.2725,-0.043,-0.231,0.1695,0.102
-0.055,-0.1865,-0.1315,0.1205,0.0385,-0.159,-0.129,-0.163,-0.212,-0.201,-0.2705,-0.044,-0.2305,0.167,0.103
-0.0485,-0.1855,-0.137,0.117,0.045,-0.1615,-0.1285,-0.1585,-0.206,-0.1965,-0.269,-0.0435,-0.228,0.167,0.101
-0.0455,-0.1865,-0.141,0.116,0.0485,-0.164,-0.1295,-0.155,-0.2045,-0.195,-0.265,-0.042,-0.224,0.17,0.0985
-0.0455,-0.188,-0.143,0.117,0.049,-0.1655,-0.1275,-0.153,-0.2025,-0.1925,-0.265,-0.0425,-0.2215,0.17,0.0975
-0.0455,-0.1945,-0.149,0.12,0.052,-0.172,-0.132,-0.1505,-0.2005,-0.191,-0.2645,-0.043,-0.2205,0.1665,0.0995
-0.0455,-0.2015,-0.156,0.1235,0.0555,-0.1785,-0.124,-0.1415,-0.193,-0.184,-0.2595,-0.0395,-0.2195,0.1685,0.0995
-0.042,-0.2005,-0.158,0.1215,0.0585,-0.1795,-0.122,-0.1355,-0.186,-0.177,-0.2555,-0.037,-0.214,0.1625,0.1015
-0.0435,-0.201,-0.157,0.122,0.0575,-0.179,-0.1275,-0.1365,-0.182,-0.1715,-0.2505,-0.0325,-0.209,0.1615,0.1005
-0.038,-0.1995,-0.161,0.1185,0.062,-0.1805,-0.1235,-0.131,-0.1785,-0.1685,-0.249,-0.0295,-0.2055,0.161,0.0965
-0.0345,-0.193,-0.1585,0.114,0.0625,-0.176,-0.118,-0.1245,-0.1745,-0.1675,-0.2485,-0.0285,-0.2025,0.164,0.096
-0.032,-0.186,-0.154,0.109,0.0615,-0.17,-0.1155,-0.125,-0.172,-0.169,-0.2505,-0.0295,-0.2055,0.168,0.093
-0.027,-0.181,-0.1535,0.104,0.0635,-0.1675,-0.113,-0.121,-0.167,-0.1685,-0.251,-0.0305,-0.2045,0.1615,0.092
-0.0235,-0.178,-0.154,0.1005,0.066,-0.166,-0.107,-0.1175,-0.1625,-0.1635,-0.249,-0.029,-0.205,0.167,0.0905
-0.021,-0.1795,-0.158,0.1005,0.069,-0.169,-0.103,-0.115,-0.1595,-0.1615,-0.249,-0.0285,-0.204,0.1615,0.0905
-0.0285,-0.1805,-0.152,0.1045,0.062,-0.166,-0.098,-0.11,-0.155,-0.161,-0.249,-0.0265,-0.202,0.162,0.089
-0.027,-0.1735,-0.1465,0.1,0.06,-0.1595,-0.0945,-0.104,-0.1545,-0.159,-0.2485,-0.025,-0.2045,0.172,0.0815
-0.021,-0.1665,-0.1455,0.0935,0.0625,-0.156,-0.093,-0.099,-0.148,-0.157,-0.2465,-0.021,-0.2005,0.1675,0.0795
-0.026,-0.169,-0.1425,0.0975,0.0585,-0.1555,-0.092,-0.0925,-0.142,-0.1565,-0.245,-0.019,-0.1975,0.162,0.079
-0.0275,-0.1735,-0.1455,0.1005,0.059,-0.159,-0.092,-0.088,-0.14,-0.154,-0.2455,-0.0195,-0.1985,0.161,0.0785
-0.024,-0.1775,-0.153,0.1005,0.065,-0.165,-0.087,-0.0855,-0.1335,-0.1525,-0.2415,-0.016,-0.197,0.159,0.0795
-0.0285,-0.1865,-0.158,0.1075,0.065,-0.172,-0.087,-0.083,-0.129,-0.1495,-0.2375,-0.014,-0.196,0.1505,0.08
-0.034,-0.1885,-0.1545,0.111,0.061,-0.1715,-0.081,-0.0725,-0.1215,-0.145,-0.236,-0.0115,-0.1945,0.1505,0.082
-0.035,-0.1875,-0.1525,0.111,0.059,-0.17,-0.073,-0.061,-0.1135,-0.141,-0.2325,-0.011,-0.195,0.154,0.0785
-0.0335,-0.1895,-0.156,0.1115,0.062,-0.1725,-0.0765,-0.063,-0.113,-0.1395,-0.234,-0.0105,-0.1925,0.151,0.0755
-0.0285,-0.1905,-0.162,0.1095,0.0675,-0.1765,-0.0725,-0.0575,-0.108,-0.136,-0.23,-0.005,-0.1865,0.154,0.078
-0.025,-0.1995,-0.1745,0.112,0.0755,-0.1875,-0.069,-0.0505,-0.0995,-0.1305,-0.227,-0.003,-0.1855,0.148,0.08
-0.024,-0.2045,-0.1805,0.114,0.079,-0.1925,-0.066,-0.048,-0.095,-0.127,-0.2285,-0.0035,-0.184,0.1455,0.0815
-0.0235,-0.2025,-0.179,0.113,0.0785,-0.191,-0.0605,-0.04,-0.0895,-0.1245,-0.226,-0.004,-0.1835,0.1555,0.0795
-0.0215,-0.2015,-0.18,0.1115,0.0795,-0.191,-0.0595,-0.033,-0.0825,-0.12,-0.2245,-0.0035,-0.181,0.1545,0.0755
-0.0215,-0.2015,-0.18,0.1115,0.08,-0.191,-0.0605,-0.0275,-0.079,-0.117,-0.2235,-0.006,-0.1795,0.1505,0.072
-0.0165,-0.1975,-0.1805,0.107,0.0825,-0.189,-0.058,-0.0255,-0.0775,-0.117,-0.2225,-0.0085,-0.1815,0.1495,0.067
-0.0095,-0.1895,-0.18,0.0995,0.0855,-0.185,-0.0525,-0.017,-0.0695,-0.1125,-0.218,-0.006,-0.178,0.1535,0.0625
-0.0135,-0.1945,-0.1815,0.104,0.0845,-0.188,-0.0515,-0.0085,-0.0625,-0.1085,-0.2135,-0.006,-0.1755,0.1535,0.0605
-0.013,-0.1955,-0.1825,0.1045,0.0855,-0.189,-0.0485,-0.005,-0.057,-0.105,-0.2105,-0.0035,-0.1735,0.1525,0.059
-0.0055,-0.1865,-0.181,0.096,0.0885,-0.1835,-0.0465,-0.0005,-0.052,-0.1015,-0.2105,-0.003,-0.172,0.1495,0.0575
-0.002,-0.179,-0.177,0.0905,0.088,-0.178,-0.0455,0.004,-0.047,-0.1005,-0.2125,-0.006,-0.1735,0.1545,0.053
0.002,-0.174,-0.1755,0.086,0.0895,-0.1745,-0.043,0.0085,-0.0415,-0.097,-0.2105,-0.0065,-0.173,0.162,0.048
0.006,-0.1735,-0.1795,0.0835,0.0935,-0.1765,-0.039,0.013,-0.0365,-0.0935,-0.209,-0.0065,-0.1715,0.1575,0.0475
0.001,-0.176,-0.177,0.0875,0.0895,-0.1765,-0.0315,0.0265,-0.0265,-0.0875,-0.2045,-0.005,-0.171,0.159,0.045
-0.002,-0.183,-0.1815,0.0925,0.09,-0.182,-0.026,0.0355,-0.0195,-0.085,-0.2035,-0.004,-0.171,0.159,0.044
0.0035,-0.1885,-0.1925,0.0925,0.0985,-0.1905,-0.0245,0.0365,-0.0175,-0.087,-0.2065,-0.006,-0.172,0.153,0.047
0.001,-0.1905,-0.1915,0.0945,0.097,-0.191,-0.0195,0.042,-0.0125,-0.084,-0.2065,-0.0085,-0.1735,0.1485,0.0455
-0.001,-0.1895,-0.1885,0.095,0.094,-0.189,-0.013,0.0515,-0.002,-0.079,-0.203,-0.007,-0.1735,0.147,0.044
-0.001,-0.1845,-0.184,0.0925,0.092,-0.184,-0.01,0.059,0.0075,-0.072,-0.1965,-0.004,-0.1735,0.1495,0.0425
-0.0035,-0.1875,-0.184,0.0955,0.091,-0.186,-0.0015,0.0685,0.017,-0.064,-0.1945,-0.002,-0.172,0.15,0.0405
-0.005,-0.2005,-0.1955,0.103,0.0955,-0.198,0.005,0.078,0.028,-0.06,-0.196,-0.002,-0.172,0.1405,0.04
-0.01,-0.2105,-0.2005,0.11,0.096,-0.2055,0.0075,0.082,0.0335,-0.0555,-0.192,-0.0025,-0.171,0.136,0.0395
-0.0075,-0.2125,-0.2045,0.11,0.099,-0.2085,0.0125,0.09,0.0405,-0.0505,-0.19,-0.001,-0.168,0.136,0.0375
0.0,-0.2095,-0.2095,0.1045,0.1055,-0.2095,0.015,0.096,0.048,-0.046,-0.1865,0.003,-0.166,0.1355,0.034
0.0025,-0.2025,-0.2055,0.1,0.1045,-0.204,0.0205,0.103,0.055,-0.039,-0.18,0.0065,-0.1625,0.1395,0.03
0.003,-0.1975,-0.2005,0.097,0.1025,-0.199,0.025,0.116,0.0645,-0.032,-0.178,0.008,-0.159,0.1335,0.0265
0.0095,-0.192,-0.2015,0.0915,0.1055,-0.1965,0.028,0.123,0.072,-0.0275,-0.1755,0.008,-0.1575,0.135,0.0225
0.0155,-0.189,-0.2045,0.087,0.1105,-0.1965,0.0345,0.127,0.0775,-0.0255,-0.1735,0.009,-0.155,0.1435,0.02
0.016,-0.192,-0.208,0.088,0.1125,-0.2,0.0385,0.1345,0.0835,-0.021,-0.1715,0.013,-0.1505,0.1465,0.0205
0.023,-0.188,-0.211,0.0825,0.1175,-0.1995,0.0375,0.138,0.088,-0.0155,-0.167,0.017,-0.143,0.1435,0.018
0.025,-0.18,-0.2045,0.0775,0.1155,-0.192,0.0425,0.1495,0.0985,-0.0055,-0.159,0.026,-0.134,0.149,0.0125
0.0265,-0.1745,-0.201,0.074,0.114,-0.188,0.049,0.158,0.1075,0.002,-0.1535,0.03,-0.1285,0.1505,0.0085
0.036,-0.1725,-0.208,0.068,0.122,-0.19,0.05,0.1615,0.1115,0.0025,-0.1535,0.03,-0.127,0.139,0.0065
0.0345,-0.175,-0.2095,0.07,0.1225,-0.192,0.056,0.183,0.1245,0.0095,-0.1515,0.0295,-0.1275,0.1415,0.0045
0.0305,-0.184,-0.2145,0.077,0.123,-0.1995,0.0645,0.197,0.137,0.0165,-0.1485,0.0305,-0.127,0.14,0.0055
0.03,-0.1905,-0.2205,0.0805,0.126,-0.2055,0.0715,0.2025,0.144,0.02,-0.1465,0.033,-0.1255,0.1395,0.0045
0.031,-0.198,-0.229,0.0835,0.13,-0.2135,0.078,0.2105,0.1495,0.0245,-0.144,0.032,-0.1255,0.1355,0.0045
0.034,-0.201,-0.235,0.0835,0.1345,-0.218,0.0835,0.2195,0.159,0.0325,-0.1385,0.035,-0.123,0.1225,0.0015
0.037,-0.199,-0.236,0.0815,0.1365,-0.2175,0.0875,0.228,0.169,0.0385,-0.1355,0.0375,-0.119,0.1225,-0.002
0.0375,-0.2005,-0.238,0.0815,0.1375,-0.219,0.0955,0.239,0.1815,0.045,-0.1335,0.0405,-0.1165,0.123,-0.002
0.0385,-0.21,-0.248,0.086,0.143,-0.229,0.1005,0.2445,0.187,0.0465,-0.132,0.0415,-0.116,0.116,-0.002
0.031,-0.2245,-0.255,0.097,0.143,-0.24,0.104,0.2475,0.187,0.0445,-0.133,0.0385,-0.117,0.115,-0.0005
0.0275,-0.2255,-0.253,0.099,0.1405,-0.239,0.1145,0.2645,0.201,0.055,-0.1265,0.041,-0.1135,0.1195,-0.006
0.0355,-0.2205,-0.256,0.093,0.1455,-0.2385,0.12,0.28,0.2185,0.064,-0.12,0.0435,-0.1095,0.1165,-0.011
0.0375,-0.216,-0.2535,0.089,0.1455,-0.2345,0.121,0.284,0.2255,0.0675,-0.119,0.044,-0.108,0.111,-0.0155
0.039,-0.212,-0.251,0.0865,0.145,-0.2315,0.1245,0.292,0.2325,0.073,-0.1145,0.0485,-0.103,0.1095,-0.02
0.0365,-0.211,-0.247,0.0875,0.1415,-0.229,0.1305,0.304,0.2415,0.0765,-0.113,0.0495,-0.103,0.1175,-0.0225
0.036,-0.2115,-0.247,0.0875,0.1415,-0.229,0.136,0.311,0.2485,0.079,-0.114,0.049,-0.102,0.121,-0.026
0.0455,-0.2095,-0.255,0.082,0.15,-0.232,0.1405,0.324,0.263,0.0835,-0.112,0.0475,-0.099,0.1135,-0.027
0.0525,-0.2035,-0.256,0.0755,0.1545,-0.23,0.1455,0.3315,0.272,0.0905,-0.109,0.049,-0.0955,0.112,-0.0305
0.056,-0.1955,-0.2515,0.07,0.1535,-0.2235,0.153,0.342,0.283,0.1005,-0.104,0.0515,-0.092,0.115,-0.0395
0.0545,-0.193,-0.2475,0.0695,0.151,-0.2205,0.1575,0.354,0.295,0.106,-0.104,0.05,-0.093,0.1135,-0.0475
0.0575,-0.194,-0.2515,0.068,0.1545,-0.2225,0.1595,0.3605,0.3015,0.108,-0.1035,0.0485,-0.092,0.1135,-0.0495
0.0565,-0.1975,-0.254,0.0705,0.1555,-0.226,0.165,0.3675,0.3095,0.1105,-0.1055,0.044,-0.094,0.115,-0.051
0.0565,-0.206,-0.2625,0.075,0.1595,-0.2345,0.17,0.3755,0.315,0.112,-0.1055,0.044,-0.093,0.112,-0.0515
0.0595,-0.2145,-0.274,0.0775,0.167,-0.2445,0.1775,0.3885,0.327,0.1175,-0.102,0.044,-0.0915,0.1015,-0.052
0.052,-0.2265,-0.2785,0.0875,0.1655,-0.2525,0.188,0.3995,0.338,0.1245,-0.0995,0.045,-0.0915,0.089,-0.055
0.0515,-0.2305,-0.282,0.0895,0.167,-0.256,0.1945,0.4085,0.35,0.1285,-0.093,0.0495,-0.0875,0.0955,-0.0565
0.0555,-0.2265,-0.2815,0.0855,0.1685,-0.254,0.197,0.416,0.3615,0.1325,-0.092,0.049,-0.085,0.1,-0.061
0.055,-0.229,-0.284,0.0875,0.1695,-0.2565,0.205,0.4285,0.3645,0.1355,-0.094,0.047,-0.085,0.093,-0.0605
0.0545,-0.238,-0.2925,0.092,0.1735,-0.265,0.213,0.442,0.376,0.1415,-0.0915,0.048,-0.085,0.084,-0.0605
0.0615,-0.244,-0.3055,0.0915,0.1835,-0.275,0.218,0.45,0.389,0.1495,-0.0875,0.052,-0.0805,0.0795,-0.062
0.0685,-0.2455,-0.3145,0.0885,0.1915,-0.28,0.222,0.46,0.3985,0.1525,-0.085,0.057,-0.0735,0.077,-0.061
0.0665,-0.256,-0.3225,0.095,0.1945,-0.2895,0.2205,0.4645,0.405,0.1545,-0.0855,0.056,-0.072,0.066,-0.0625
0.0645,-0.261,-0.3255,0.098,0.195,-0.2935,0.2275,0.4755,0.415,0.161,-0.0815,0.058,-0.07,0.065,-0.067
0.07,-0.2535,-0.324,0.0915,0.197,-0.2885,0.232,0.489,0.4275,0.1695,-0.0745,0.064,-0.064,0.0685,-0.072
0.069,-0.2495,-0.3185,0.0905,0.194,-0.284,0.2375,0.498,0.435,0.1765,-0.071,0.066,-0.0665,0.0695,-0.074
0.068,-0.244,-0.312,0.088,0.19,-0.278,0.2485,0.5115,0.445,0.1835,-0.067,0.069,-0.0655,0.067,-0.0775
0.0755,-0.2495,-0.3245,0.087,0.2,-0.287,0.251,0.5165,0.452,0.187,-0.064,0.069,-0.0615,0.0585,-0.076
0.08,-0.2535,-0.3335,0.087,0.2065,-0.2935,0.2545,0.5225,0.457,0.1895,-0.063,0.07,-0.061,0.062,-0.079
0.082,-0.249,-0.331,0.0835,0.2065,-0.29,0.26,0.532,0.4645,0.195,-0.062,0.0725,-0.056,0.065,-0.0865
0.0865,-0.2455,-0.332,0.0795,0.209,-0.289,0.2685,0.5425,0.475,0.2005,-0.057,0.076,-0.0525,0.064,-0.089
0.089,-0.245,-0.334,0.078,0.2115,-0.2895,0.2755,0.55,0.482,0.2025,-0.0535,0.0775,-0.0505,0.069,-0.0905
0.084,-0.2535,-0.3375,0.0845,0.211,-0.2955,0.282,0.554,0.4855,0.203,-0.054,0.074,-0.0505,0.0655,-0.091
0.0875,-0.259,-0.3465,0.086,0.217,-0.3025,0.2865,0.561,0.4915,0.204,-0.057,0.072,-0.05,0.0575,-0.0905
0.092,-0.2635,-0.355,0.0855,0.2235,-0.309,0.285,0.5645,0.4985,0.2085,-0.0575,0.0715,-0.049,0.048,-0.0905
0.094,-0.267,-0.361,0.0865,0.2275,-0.314,0.2875,0.5725,0.5055,0.2135,-0.054,0.0745,-0.047,0.0415,-0.093
0.095,-0.2695,-0.3645,0.087,0.2295,-0.317,0.292,0.5855,0.515,0.2175,-0.0525,0.0755,-0.045,0.045,-0.0955
0.0885,-0.274,-0.3625,0.0925,0.2255,-0.318,0.295,0.593,0.525,0.222,-0.052,0.0735,-0.045,0.0445,-0.1
0.082,-0.2815,-0.3635,0.0995,0.223,-0.3225,0.297,0.5975,0.5295,0.224,-0.054,0.072,-0.044,0.0405,-0.0985
0.0835,-0.2885,-0.372,0.1025,0.2275,-0.33,0.3005,0.602,0.535,0.223,-0.057,0.0695,-0.0435,0.038,-0.095
0.0845,-0.2995,-0.3835,0.1075,0.234,-0.3415,0.307,0.6085,0.54,0.2245,-0.059,0.067,-0.0445,0.032,-0.095
0.0825,-0.3065,-0.389,0.112,0.236,-0.3475,0.312,0.6115,0.546,0.226,-0.06,0.0665,-0.0455,0.0235,-0.0945
0.0875,-0.303,-0.3905,0.1075,0.239,-0.347,0.3135,0.6225,0.5535,0.228,-0.057,0.068,-0.042,0.017,-0.096
0.0835,-0.3075,-0.391,0.112,0.2375,-0.349,0.3145,0.6325,0.557,0.2315,-0.054,0.0685,-0.0385,0.018,-0.0995
0.086,-0.305,-0.3905,0.1095,0.238,-0.348,0.3175,0.632,0.561,0.2325,-0.0525,0.0695,-0.0395,0.022,-0.104
0.0935,-0.298,-0.3915,0.102,0.243,-0.345,0.3205,0.6405,0.5685,0.2345,-0.0525,0.069,-0.0385,0.021,-0.1065
0.092,-0.2975,-0.3895,0.1025,0.241,-0.3435,0.326,0.6485,0.574,0.2345,-0.053,0.0675,-0.039,0.02,-0.1095
0.0915,-0.303,-0.3945,0.1055,0.243,-0.3485,0.3315,0.6575,0.5835,0.2385,-0.0485,0.0675,-0.0405,0.0215,-0.1115
0.0935,-0.303,-0.3965,0.105,0.245,-0.35,0.3335,0.663,0.5885,0.2415,-0.048,0.068,-0.0365,0.02,-0.112
0.098,-0.2985,-0.397,0.1005,0.2475,-0.348,0.334,0.665,0.5895,0.241,-0.0475,0.068,-0.032,0.0125,-0.1145
0.1025,-0.302,-0.404,0.0995,0.253,-0.353,0.3335,0.6675,0.591,0.2425,-0.047,0.0665,-0.0295,0.009,-0.118
0.1035,-0.3015,-0.405,0.099,0.254,-0.353,0.335,0.671,0.5945,0.243,-0.049,0.0665,-0.0305,0.012,-0.12
0.1015,-0.301,-0.4025,0.0995,0.252,-0.3515,0.3385,0.677,0.6025,0.249,-0.043,0.069,-0.033,0.015,-0.1245
0.1075,-0.3055,-0.4125,0.099,0.26,-0.359,0.342,0.6805,0.6065,0.2515,-0.0435,0.0675,-0.032,0.0095,-0.1225
0.111,-0.313,-0.424,0.101,0.2675,-0.3685,0.343,0.687,0.61,0.2535,-0.0475,0.0655,-0.031,-0.0015,-0.118
0.1045,-0.32,-0.425,0.1075,0.2645,-0.3725,0.341,0.687,0.6115,0.254,-0.0485,0.0615,-0.0335,-0.0025,-0.12
0.1075,-0.3225,-0.4305,0.1075,0.269,-0.3765,0.343,0.6935,0.618,0.2565,-0.0455,0.0625,-0.0325,-0.004,-0.1215
0.1115,-0.321,-0.4325,0.105,0.272,-0.377,0.3455,0.7,0.6195,0.259,-0.0465,0.064,-0.031,-0.007,-0.121
0.1105,-0.325,-0.4355,0.1075,0.273,-0.3805,0.3495,0.704,0.617,0.2565,-0.049,0.0605,-0.033,-0.0125,-0.118
0.113,-0.3325,-0.4455,0.1095,0.2795,-0.389,0.3575,0.7115,0.63,0.2615,-0.044,0.0645,-0.0305,-0.0195,-0.1185
0.118,-0.3395,-0.4575,0.111,0.2875,-0.3985,0.3605,0.714,0.636,0.2625,-0.045,0.064,-0.029,-0.0275,-0.1155
0.119,-0.349,-0.468,0.115,0.2935,-0.4085,0.3615,0.7165,0.6355,0.259,-0.049,0.06,-0.032,-0.039,-0.1125
0.116,-0.3515,-0.467,0.118,0.2915,-0.409,0.3615,0.713,0.632,0.2535,-0.0555,0.0565,-0.034,-0.0385,-0.1125
0.114,-0.3485,-0.462,0.1175,0.288,-0.405,0.3645,0.717,0.637,0.255,-0.053,0.0595,-0.032,-0.034,-0.1135
0.115,-0.345,-0.46,0.115,0.2875,-0.4025,0.3675,0.7225,0.6425,0.2575,-0.052,0.059,-0.0335,-0.0285,-0.1185
0.1195,-0.3425,-0.4615,0.1115,0.2905,-0.402,0.368,0.721,0.639,0.254,-0.062,0.0525,-0.0375,-0.029,-0.118
0.119,-0.3425,-0.461,0.112,0.29,-0.4015,0.3685,0.722,0.641,0.2565,-0.0595,0.054,-0.0355,-0.033,-0.115
0.114,-0.348,-0.462,0.117,0.288,-0.405,0.3685,0.7185,0.6405,0.257,-0.0575,0.0555,-0.037,-0.0395,-0.112
0.1125,-0.348,-0.4605,0.118,0.2865,-0.4045,0.3685,0.717,0.6385,0.256,-0.0575,0.0575,-0.036,-0.04,-0.1125
0.119,-0.341,-0.46,0.111,0.2895,-0.4005,0.365,0.7175,0.637,0.2555,-0.056,0.058,-0.032,-0.032,-0.116
0.1225,-0.341,-0.4635,0.109,0.293,-0.402,0.362,0.712,0.633,0.2545,-0.0565,0.061,-0.028,-0.0335,-0.116
0.127,-0.3395,-0.4665,0.106,0.297,-0.403,0.3605,0.71,0.6305,0.253,-0.056,0.063,-0.0255,-0.042,-0.1165
0.1305,-0.342,-0.4725,0.1055,0.3015,-0.407,0.358,0.707,0.6255,0.2505,-0.057,0.06,-0.0255,-0.045,-0.1165
0.123,-0.3505,-0.474,0.1135,0.2985,-0.412,0.358,0.706,0.6245,0.25,-0.056,0.0615,-0.0245,-0.041,-0.1125
0.1225,-0.3555,-0.478,0.1165,0.3005,-0.4165,0.3575,0.7055,0.629,0.2525,-0.0545,0.0635,-0.0235,-0.047,-0.1125
0.122,-0.3585,-0.4805,0.1185,0.301,-0.4195,0.356,0.702,0.622,0.2485,-0.0595,0.061,-0.0255,-0.0555,-0.111
0.122,-0.3575,-0.479,0.118,0.3005,-0.4185,0.3545,0.6985,0.6155,0.242,-0.065,0.057,-0.031,-0.0565,-0.1075
0.124,-0.354,-0.4775,0.115,0.301,-0.416,0.3505,0.688,0.6075,0.2365,-0.0705,0.053,-0.034,-0.0505,-0.1105
0.1175,-0.3605,-0.4775,0.1215,0.2975,-0.419,0.348,0.6835,0.5985,0.2315,-0.0735,0.0505,-0.0375,-0.054,-0.108
0.115,-0.3695,-0.4845,0.1275,0.2995,-0.427,0.346,0.6805,0.5935,0.227,-0.0745,0.048,-0.04,-0.063,-0.1025
0.1125,-0.3775,-0.49,0.1325,0.301,-0.4335,0.3435,0.673,0.5855,0.2235,-0.077,0.046,-0.0415,-0.0595,-0.098
0.1065,-0.387,-0.494,0.14,0.3005,-0.4405,0.342,0.6705,0.5825,0.2225,-0.076,0.0465,-0.043,-0.066,-0.093
0.108,-0.3855,-0.4935,0.139,0.3005,-0.4395,0.3365,0.6575,0.5715,0.217,-0.0775,0.047,-0.042,-0.0705,-0.0915
0.1115,-0.375,-0.4865,0.132,0.299,-0.4305,0.333,0.6495,0.5635,0.2145,-0.0775,0.047,-0.0435,-0.0665,-0.0905
0.1115,-0.365,-0.4765,0.127,0.294,-0.421,0.3325,0.6535,0.564,0.217,-0.0735,0.0505,-0.0435,-0.0595,-0.092
0.112,-0.362,-0.4745,0.125,0.293,-0.4185,0.33,0.6445,0.555,0.2155,-0.074,0.0505,-0.043,-0.0515,-0.0925
0.1165,-0.3625,-0.479,0.123,0.298,-0.4205,0.3225,0.6315,0.5425,0.2085,-0.078,0.0445,-0.0455,-0.054,-0.089
0.117,-0.3645,-0.482,0.124,0.2995,-0.4235,0.31,0.612,0.527,0.2,-0.085,0.0385,-0.0505,-0.063,-0.0855
0.1185,-0.359,-0.4775,0.1205,0.298,-0.4185,0.3065,0.608,0.523,0.198,-0.0855,0.036,-0.053,-0.058,-0.0865
0.1175,-0.351,-0.4685,0.1165,0.293,-0.41,0.301,0.6045,0.517,0.195,-0.0885,0.0325,-0.056,-0.0495,-0.0895
0.111,-0.353,-0.464,0.121,0.2875,-0.4085,0.294,0.5885,0.499,0.184,-0.0975,0.025,-0.062,-0.0475,-0.089
0.1075,-0.35,-0.4575,0.1215,0.2825,-0.4035,0.291,0.578,0.4875,0.1785,-0.099,0.0235,-0.0645,-0.042,-0.0895
0.105,-0.351,-0.4555,0.123,0.28,-0.403,0.283,0.56,0.474,0.1715,-0.101,0.023,-0.067,-0.0415,-0.0875
0.106,-0.351,-0.4575,0.1225,0.2815,-0.404,0.2825,0.555,0.4675,0.1655,-0.1,0.0245,-0.0675,-0.047,-0.082
0.106,-0.351,-0.4575,0.1225,0.2815,-0.404,0.2795,0.552,0.4625,0.166,-0.0945,0.032,-0.0645,-0.05,-0.078
0.1025,-0.357,-0.4595,0.1275,0.281,-0.408,0.265,0.533,0.447,0.159,-0.0955,0.0315,-0.065,-0.0485,-0.0755
0.0965,-0.362,-0.4585,0.133,0.2775,-0.4105,0.256,0.518,0.43,0.149,-0.1035,0.026,-0.0715,-0.048,-0.0725
0.092,-0.361,-0.453,0.1345,0.2725,-0.407,0.2515,0.5055,0.4155,0.138,-0.1115,0.0205,-0.0765,-0.0485,-0.069
0.095,-0.358,-0.453,0.1315,0.274,-0.4055,0.243,0.4905,0.4005,0.13,-0.114,0.0195,-0.077,-0.049,-0.0645
0.1,-0.3575,-0.4575,0.129,0.2785,-0.4075,0.2395,0.4795,0.3895,0.126,-0.1155,0.0205,-0.0785,-0.0485,-0.0585
0.102,-0.3545,-0.457,0.1265,0.2795,-0.406,0.2335,0.471,0.38,0.123,-0.1175,0.019,-0.081,-0.048,-0.0535
0.0955,-0.359,-0.454,0.132,0.275,-0.4065,0.229,0.4595,0.3715,0.121,-0.1165,0.022,-0.0815,-0.049,-0.0495
0.0935,-0.3565,-0.45,0.1315,0.2715,-0.4035,0.2265,0.447,0.3625,0.1165,-0.1155,0.025,-0.082,-0.0445,-0.0465
0.095,-0.3445,-0.439,0.1245,0.267,-0.392,0.2185,0.432,0.348,0.1095,-0.118,0.0265,-0.085,-0.0375,-0.0435
0.086,-0.339,-0.425,0.1265,0.2555,-0.382,0.2075,0.418,0.3335,0.103,-0.119,0.0255,-0.087,-0.0335,-0.0415
0.081,-0.3385,-0.419,0.1285,0.25,-0.3785,0.193,0.4,0.3165,0.093,-0.1235,0.0215,-0.0895,-0.0275,-0.038
0.077,-0.34,-0.417,0.1315,0.247,-0.3785,0.1805,0.3785,0.2975,0.083,-0.1305,0.017,-0.094,-0.023,-0.0335
0.0745,-0.34,-0.414,0.1325,0.2445,-0.377,0.174,0.3655,0.283,0.0755,-0.134,0.014,-0.0975,-0.023,-0.03
0.0705,-0.338,-0.4085,0.1335,0.2395,-0.3735,0.1685,0.3535,0.27,0.068,-0.1385,0.015,-0.0985,-0.016,-0.0265
0.0735,-0.3295,-0.403,0.128,0.238,-0.366,0.1585,0.3355,0.253,0.0605,-0.1385,0.017,-0.097,-0.01,-0.0255
0.076,-0.318,-0.394,0.121,0.235,-0.356,0.1525,0.3215,0.241,0.0545,-0.1365,0.022,-0.0985,-0.006,-0.0255
0.071,-0.313,-0.384,0.121,0.2275,-0.348,0.145,0.309,0.2315,0.052,-0.1365,0.0255,-0.099,-0.0025,-0.0245
0.073,-0.313,-0.386,0.12,0.2295,-0.3495,0.1325,0.2915,0.2165,0.0445,-0.139,0.024,-0.099,-0.0045,-0.021
0.0665,-0.3155,-0.3815,0.1245,0.224,-0.3485,0.127,0.2775,0.202,0.0365,-0.142,0.023,-0.1035,-0.007,-0.0145
0.062,-0.3185,-0.381,0.1285,0.2215,-0.3495,0.12,0.2625,0.187,0.028,-0.146,0.021,-0.106,-0.004,-0.0095
0.0675,-0.317,-0.3845,0.1245,0.226,-0.3505,0.112,0.2505,0.175,0.0195,-0.1495,0.02,-0.106,0.002,-0.005
0.072,-0.311,-0.383,0.1195,0.2275,-0.347,0.107,0.2405,0.164,0.014,-0.151,0.0215,-0.107,-0.006,-0.0005
0.075,-0.3045,-0.379,0.1145,0.227,-0.3415,0.0965,0.226,0.15,0.0095,-0.153,0.0225,-0.1085,-0.0025,0.0025
0.068,-0.3035,-0.3715,0.118,0.2195,-0.3375,0.088,0.2115,0.138,0.0045,-0.155,0.022,-0.1115,0.0055,0.005
0.062,-0.3075,-0.3695,0.123,0.2155,-0.3385,0.081,0.2005,0.1275,0.001,-0.1535,0.0225,-0.114,0.007,0.013
0.057,-0.3075,-0.3645,0.125,0.211,-0.336,0.072,0.1865,0.115,-0.0045,-0.153,0.024,-0.116,0.0135,0.02
0.0535,-0.3105,-0.364,0.1285,0.2085,-0.337,0.0655,0.173,0.102,-0.013,-0.157,0.022,-0.119,0.0095,0.0235
0.05,-0.314,-0.3645,0.132,0.207,-0.339,0.0575,0.1585,0.0865,-0.021,-0.162,0.019,-0.123,0.007,0.0265
0.0475,-0.308,-0.3555,0.13,0.2015,-0.3315,0.048,0.136,0.066,-0.033,-0.1695,0.0145,-0.127,0.011,0.0265
0.045,-0.2975,-0.343,0.1265,0.194,-0.32,0.0445,0.1285,0.0575,-0.036,-0.17,0.015,-0.129,0.02,0.026
0.045,-0.2895,-0.335,0.122,0.19,-0.312,0.0385,0.117,0.0485,-0.0365,-0.17,0.0155,-0.1305,0.027,0.0295
0.046,-0.2865,-0.3325,0.1205,0.1895,-0.3095,0.0285,0.1005,0.0335,-0.043,-0.1755,0.0125,-0.132,0.0265,0.0335
0.0445,-0.285,-0.33,0.12,0.187,-0.307,0.0225,0.0855,0.0205,-0.0505,-0.182,0.006,-0.138,0.0265,0.0385
0.043,-0.281,-0.3235,0.119,0.1835,-0.302,0.0165,0.072,0.0075,-0.063,-0.19,0.002,-0.143,0.0315,0.0435
0.032,-0.277,-0.3085,0.1225,0.17,-0.293,0.0145,0.067,-0.006,-0.075,-0.196,0.0,-0.1465,0.044,0.0415
0.0265,-0.271,-0.2975,0.122,0.162,-0.284,0.008,0.0505,-0.0205,-0.0825,-0.2,-0.0025,-0.15,0.0555,0.0415
0.029,-0.26,-0.289,0.1155,0.159,-0.2745,0.003,0.0435,-0.0285,-0.0885,-0.1975,0.0015,-0.15,0.059,0.0425
0.0345,-0.249,-0.2835,0.107,0.159,-0.266,-0.0015,0.034,-0.0385,-0.095,-0.198,0.003,-0.152,0.063,0.045
0.031,-0.251,-0.282,0.1095,0.1565,-0.2665,-0.0115,0.0175,-0.0485,-0.098,-0.1995,0.0015,-0.1535,0.069,0.0495
0.0285,-0.253,-0.2815,0.112,0.155,-0.267,-0.018,0.0095,-0.058,-0.1035,-0.202,-0.0005,-0.156,0.073,0.054
0.033,-0.251,-0.284,0.109,0.1585,-0.2675,-0.025,-0.004,-0.072,-0.111,-0.208,-0.0015,-0.16,0.0675,0.06
0.026,-0.2515,-0.2775,0.113,0.152,-0.2645,-0.03,-0.009,-0.08,-0.114,-0.2065,0.001,-0.16,0.063,0.061
0.0245,-0.2445,-0.269,0.11,0.147,-0.257,-0.034,-0.0125,-0.0835,-0.1145,-0.204,0.002,-0.159,0.071,0.061
0.0285,-0.239,-0.2675,0.105,0.148,-0.253,-0.041,-0.026,-0.092,-0.118,-0.206,0.0035,-0.16,0.0805,0.0645
0.0295,-0.2415,-0.271,0.106,0.1505,-0.256,-0.047,-0.0355,-0.102,-0.122,-0.207,0.0025,-0.162,0.0785,0.0705
0.0205,-0.248,-0.269,0.1135,0.145,-0.2585,-0.054,-0.0475,-0.1145,-0.1295,-0.2105,-0.001,-0.166,0.075,0.0755
0.0145,-0.2515,-0.266,0.1185,0.14,-0.2585,-0.058,-0.0555,-0.123,-0.135,-0.2125,-0.0025,-0.169,0.0805,0.0795
0.017,-0.2495,-0.266,0.116,0.1415,-0.2575,-0.06,-0.0615,-0.1285,-0.1345,-0.211,-0.0005,-0.1675,0.08,0.0815
0.016,-0.2375,-0.253,0.1105,0.1345,-0.2455,-0.0645,-0.0685,-0.1355,-0.1355,-0.209,-0.001,-0.169,0.089,0.077
0.02,-0.2235,-0.2435,0.102,0.1315,-0.2335,-0.069,-0.0785,-0.145,-0.139,-0.2095,-0.0025,-0.171,0.095,0.0785
0.0145,-0.22,-0.235,0.103,0.1255,-0.2275,-0.0745,-0.0875,-0.153,-0.1415,-0.212,-0.0035,-0.1735,0.0925,0.079
0.0025,-0.2215,-0.2245,0.1095,0.114,-0.223,-0.0815,-0.092,-0.159,-0.145,-0.214,-0.0055,-0.176,0.1045,0.0775
0.005,-0.217,-0.2225,0.106,0.114,-0.22,-0.087,-0.0995,-0.167,-0.1495,-0.2145,-0.004,-0.1765,0.1085,0.083
0.012,-0.207,-0.219,0.0975,0.116,-0.213,-0.0875,-0.1045,-0.171,-0.152,-0.211,0.0,-0.177,0.1095,0.0845
0.012,-0.1955,-0.2075,0.092,0.11,-0.2015,-0.09,-0.1105,-0.176,-0.155,-0.211,0.0045,-0.174,0.1185,0.0835
0.01,-0.187,-0.1965,0.0885,0.104,-0.192,-0.096,-0.118,-0.1835,-0.158,-0.2145,0.004,-0.1745,0.12,0.0825
0.007,-0.182,-0.189,0.0875,0.0985,-0.1855,-0.096,-0.1215,-0.188,-0.162,-0.2175,0.0025,-0.177,0.128,0.082
0.008,-0.177,-0.185,0.0845,0.097,-0.181,-0.097,-0.125,-0.1915,-0.1655,-0.22,0.0025,-0.1795,0.133,0.0815
0.0045,-0.182,-0.1865,0.0885,0.096,-0.1845,-0.099,-0.132,-0.199,-0.1725,-0.225,0.0005,-0.185,0.1295,0.0825
0.0005,-0.187,-0.188,0.093,0.0945,-0.1875,-0.1045,-0.1385,-0.2065,-0.179,-0.229,-0.0015,-0.185,0.129,0.0875
0.004,-0.187,-0.191,0.0915,0.098,-0.189,-0.1105,-0.1455,-0.2115,-0.1815,-0.23,-0.004,-0.1875,0.124,0.0885
0.002,-0.189,-0.1915,0.0935,0.0975,-0.19,-0.112,-0.15,-0.217,-0.185,-0.232,-0.0065,-0.19,0.1285,0.091
-0.001,-0.186,-0.1845,0.0935,0.0925,-0.185,-0.1135,-0.1555,-0.2225,-0.1855,-0.2315,-0.0075,-0.1885,0.1305,0.091
-0.0105,-0.186,-0.1755,0.098,0.083,-0.1805,-0.1155,-0.1625,-0.2255,-0.185,-0.2285,-0.0055,-0.1915,0.131,0.0925
-0.0135,-0.189,-0.1755,0.1015,0.0815,-0.1825,-0.122,-0.169,-0.231,-0.1835,-0.226,-0.0035,-0.193,0.1315,0.0975
-0.004,-0.188,-0.184,0.096,0.0905,-0.186,-0.126,-0.178,-0.237,-0.1845,-0.228,-0.0055,-0.1935,0.1355,0.1
0.0,-0.1865,-0.186,0.093,0.0935,-0.186,-0.1255,-0.177,-0.236,-0.1835,-0.2285,-0.006,-0.196,0.1415,0.102
-0.0035,-0.189,-0.186,0.096,0.0915,-0.1875,-0.124,-0.177,-0.2365,-0.1835,-0.2285,-0.0065,-0.1985,0.1385,0.104
-0.009,-0.1875,-0.1785,0.0985,0.0855,-0.1835,-0.1305,-0.1865,-0.246,-0.1915,-0.2355,-0.011,-0.2005,0.141,0.106
-0.0115,-0.1805,-0.169,0.096,0.0795,-0.175,-0.134,-0.191,-0.253,-0.198,-0.239,-0.0135,-0.2035,0.1435,0.1025
-0.012,-0.175,-0.163,0.0935,0.076,-0.169,-0.132,-0.1905,-0.252,-0.1995,-0.238,-0.0135,-0.207,0.1455,0.0985
-0.011,-0.1695,-0.1585,0.09,0.074,-0.164,-0.137,-0.1945,-0.2565,-0.204,-0.242,-0.0175,-0.2115,0.1525,0.1005
-0.012,-0.171,-0.1595,0.0915,0.0745,-0.165,-0.1385,-0.1995,-0.2625,-0.2075,-0.246,-0.02,-0.2145,0.1575,0.102
-0.012,-0.1685,-0.1565,0.09,0.073,-0.1625,-0.14,-0.201,-0.2635,-0.206,-0.245,-0.0185,-0.2125,0.157,0.103
-0.0115,-0.1585,-0.147,0.085,0.0685,-0.153,-0.1455,-0.2085,-0.2675,-0.208,-0.2455,-0.019,-0.2125,0.1635,0.1015
-0.0145,-0.152,-0.1375,0.0835,0.062,-0.1445,-0.1455,-0.2105,-0.27,-0.2085,-0.2465,-0.018,-0.213,0.171,0.099
-0.019,-0.147,-0.128,0.083,0.055,-0.1375,-0.1465,-0.2105,-0.271,-0.206,-0.245,-0.0135,-0.21,0.178,0.097
-0.025,-0.147,-0.122,0.086,0.049,-0.1345,-0.15,-0.2175,-0.275,-0.207,-0.2455,-0.013,-0.209,0.185,0.0955
-0.032,-0.1515,-0.119,0.092,0.044,-0.1355,-0.148,-0.2215,-0.2765,-0.209,-0.2465,-0.0145,-0.211,0.18,0.098
-0.0335,-0.155,-0.122,0.0945,0.045,-0.1385,-0.1505,-0.225,-0.277,-0.209,-0.247,-0.0135,-0.2115,0.1755,0.1025
-0.027,-0.153,-0.1265,0.09,0.05,-0.1395,-0.1545,-0.2255,-0.283,-0.213,-0.2515,-0.017,-0.2125,0.1765,0.1035
-0.02,-0.1485,-0.1285,0.0845,0.0545,-0.1385,-0.1525,-0.2275,-0.2895,-0.2185,-0.256,-0.019,-0.214,0.181,0.1035
-0.0125,-0.1425,-0.1305,0.0775,0.0595,-0.1365,-0.1565,-0.2335,-0.2935,-0.2205,-0.2565,-0.018,-0.213,0.183,0.106
-0.01,-0.145,-0.135,0.0775,0.063,-0.14,-0.1615,-0.2355,-0.2945,-0.222,-0.2555,-0.0175,-0.2115,0.1785,0.108
-0.0145,-0.153,-0.1385,0.0835,0.0625,-0.146,-0.161,-0.238,-0.2955,-0.2215,-0.252,-0.0135,-0.2105,0.178,0.1125
-0.0155,-0.157,-0.142,0.0865,0.0635,-0.1495,-0.1615,-0.2445,-0.3005,-0.2215,-0.25,-0.01,-0.2075,0.178,0.1185
-0.017,-0.16,-0.1435,0.0885,0.064,-0.152,-0.1615,-0.24,-0.2975,-0.2195,-0.249,-0.009,-0.2075,0.1755,0.1175
-0.016,-0.158,-0.142,0.087,0.0635,-0.15,-0.159,-0.235,-0.2935,-0.215,-0.245,-0.005,-0.205,0.1765,0.1155
-0.016,-0.1575,-0.1415,0.0865,0.0635,-0.1495,-0.1595,-0.2425,-0.301,-0.218,-0.244,-0.0035,-0.202,0.1795,0.1155
-0.018,-0.1515,-0.1335,0.085,0.058,-0.1425,-0.1675,-0.2505,-0.3035,-0.223,-0.2465,-0.0055,-0.204,0.185,0.112
