i,ii,iii,avr,avl,avf,v1,v2,v3,v4,v5,v6,vx,vy,vz
-0.4765,0.004,0.4795,0.236,-0.478,0.2425,-1.431,-2.376,-2.559,-1.751,-0.3115,-0.3185,-0.5615,0.685,0.894
-0.4705,0.042,0.512,0.2145,-0.4915,0.2775,-1.4545,-2.4415,-2.6305,-1.8135,-0.3235,-0.311,-0.565,0.7125,0.911
-0.46,0.06,0.519,0.2,-0.4895,0.29,-1.4715,-2.5165,-2.732,-1.9165,-0.36,-0.3155,-0.584,0.717,0.9445
-0.4525,0.021,0.4725,0.2155,-0.4625,0.247,-1.466,-2.5525,-2.796,-1.993,-0.3875,-0.3205,-0.602,0.685,0.975
-0.45,-0.0675,0.3815,0.2585,-0.416,0.1575,-1.4365,-2.5495,-2.822,-2.039,-0.387,-0.3095,-0.609,0.617,0.993
-0.4705,-0.168,0.302,0.319,-0.386,0.0675,-1.408,-2.515,-2.802,-2.028,-0.34,-0.2695,-0.581,0.547,1.0
-0.4965,-0.2545,0.2415,0.3755,-0.3685,-0.006,-1.386,-2.473,-2.7665,-1.9955,-0.282,-0.2245,-0.542,0.49,1.003
-0.5175,-0.2985,0.2185,0.408,-0.3675,-0.0395,-1.385,-2.4665,-2.763,-1.983,-0.227,-0.1765,-0.5025,0.474,1.0105
-0.545,-0.3345,0.21,0.44,-0.3775,-0.062,-1.3925,-2.4725,-2.78,-1.994,-0.1845,-0.131,-0.4655,0.465,1.026
-0.5675,-0.3855,0.181,0.4765,-0.374,-0.102,-1.3975,-2.481,-2.797,-2.0095,-0.152,-0.0955,-0.436,0.4325,1.0445
-0.6015,-0.472,0.129,0.5365,-0.365,-0.171,-1.4025,-2.472,-2.787,-1.9905,-0.099,-0.0525,-0.3965,0.3805,1.0625
-0.6265,-0.5475,0.0785,0.587,-0.3525,-0.234,-1.407,-2.462,-2.778,-1.9795,-0.071,-0.0315,-0.3755,0.33,1.0845
-0.6485,-0.609,0.039,0.629,-0.3435,-0.2845,-1.397,-2.4305,-2.745,-1.946,-0.038,-0.008,-0.3495,0.29,1.0885
-0.685,-0.6935,-0.009,0.6895,-0.338,-0.3505,-1.38,-2.38,-2.697,-1.8985,0.0095,0.0255,-0.31,0.2405,1.089
-0.715,-0.778,-0.0635,0.7465,-0.3255,-0.42,-1.3685,-2.3355,-2.6545,-1.8635,0.031,0.0345,-0.289,0.1895,1.0945
-0.756,-0.881,-0.126,0.8185,-0.315,-0.503,-1.366,-2.288,-2.601,-1.8175,0.057,0.047,-0.261,0.1235,1.108
-0.804,-0.991,-0.1885,0.898,-0.3075,-0.5895,-1.372,-2.243,-2.5505,-1.771,0.0905,0.0715,-0.2185,0.05,1.131
-0.847,-1.1065,-0.2605,0.977,-0.293,-0.683,-1.3575,-2.1835,-2.4925,-1.7235,0.1275,0.101,-0.174,-0.0195,1.134
-0.881,-1.188,-0.308,1.0345,-0.286,-0.7475,-1.357,-2.1545,-2.4605,-1.693,0.1695,0.1355,-0.133,-0.067,1.144
-0.9175,-1.2415,-0.325,1.0795,-0.296,-0.783,-1.364,-2.133,-2.4315,-1.656,0.2215,0.1775,-0.084,-0.0945,1.154
-0.9555,-1.2885,-0.334,1.1215,-0.3105,-0.811,-1.3595,-2.093,-2.387,-1.612,0.273,0.2175,-0.0395,-0.117,1.1465
-0.9895,-1.34,-0.3515,1.1645,-0.319,-0.845,-1.3665,-2.071,-2.3625,-1.5855,0.3205,0.257,0.0065,-0.1435,1.152
-1.0215,-1.397,-0.3765,1.209,-0.3225,-0.8865,-1.368,-2.0535,-2.3395,-1.556,0.372,0.305,0.06,-0.169,1.159
-1.039,-1.415,-0.377,1.2265,-0.3305,-0.8955,-1.3735,-2.0545,-2.33,-1.541,0.407,0.344,0.093,-0.1765,1.1595
-1.053,-1.426,-0.374,1.2395,-0.3395,-0.8995,-1.381,-2.0525,-2.3225,-1.538,0.4195,0.3665,0.1145,-0.1815,1.166
-1.056,-1.425,-0.3705,1.24,-0.3425,-0.8975,-1.3715,-2.0315,-2.3,-1.53,0.4155,0.378,0.1215,-0.1745,1.163
-1.052,-1.4105,-0.3595,1.231,-0.346,-0.8845,-1.362,-2.019,-2.2875,-1.53,0.4005,0.387,0.1215,-0.156,1.1595
-1.0415,-1.3855,-0.345,1.2135,-0.348,-0.865,-1.3565,-2.019,-2.285,-1.5405,0.3815,0.391,0.118,-0.131,1.1615
-1.027,-1.3465,-0.3205,1.1865,-0.353,-0.833,-1.347,-2.018,-2.2815,-1.55,0.3715,0.398,0.1115,-0.1025,1.153
-1.012,-1.295,-0.284,1.1535,-0.364,-0.789,-1.3335,-2.0055,-2.2685,-1.548,0.375,0.4175,0.115,-0.0635,1.1355
-1.008,-1.2455,-0.2385,1.1265,-0.3845,-0.7415,-1.316,-1.9745,-2.228,-1.513,0.401,0.4455,0.132,-0.0155,1.1035
-1.014,-1.2285,-0.216,1.121,-0.399,-0.7215,-1.303,-1.945,-2.1885,-1.481,0.4105,0.4595,0.142,0.0075,1.0795
-1.017,-1.234,-0.218,1.125,-0.399,-0.7255,-1.296,-1.9155,-2.1515,-1.4535,0.403,0.455,0.1425,0.008,1.068
-1.0275,-1.2475,-0.221,1.1375,-0.403,-0.734,-1.2925,-1.8845,-2.108,-1.414,0.4085,0.4535,0.147,0.001,1.053
-1.0165,-1.223,-0.207,1.1195,-0.4045,-0.7145,-1.294,-1.8775,-2.0925,-1.4045,0.3975,0.448,0.1395,0.015,1.042
-0.994,-1.1725,-0.1795,1.083,-0.407,-0.6755,-1.2895,-1.8645,-2.075,-1.4025,0.3765,0.4345,0.123,0.0475,1.028
-0.9845,-1.153,-0.1695,1.0685,-0.407,-0.6605,-1.2775,-1.834,-2.038,-1.3835,0.3615,0.4195,0.1115,0.061,1.0055
-0.9795,-1.1455,-0.167,1.062,-0.406,-0.6555,-1.2575,-1.7785,-1.9755,-1.3365,0.362,0.4075,0.1085,0.062,0.973
-0.9805,-1.143,-0.1635,1.0615,-0.4085,-0.653,-1.2345,-1.717,-1.904,-1.275,0.368,0.3895,0.105,0.0605,0.9375
-0.9795,-1.14,-0.1615,1.0595,-0.409,-0.65,-1.22,-1.6645,-1.84,-1.2185,0.3635,0.3635,0.0965,0.059,0.906
-0.9755,-1.137,-0.1625,1.056,-0.406,-0.649,-1.207,-1.619,-1.787,-1.173,0.3595,0.3415,0.0885,0.0545,0.8805
-0.9725,-1.1375,-0.166,1.0545,-0.403,-0.651,-1.202,-1.592,-1.7555,-1.149,0.357,0.333,0.0875,0.052,0.864
-0.98,-1.138,-0.159,1.0585,-0.41,-0.648,-1.197,-1.5555,-1.714,-1.1115,0.3645,0.33,0.0965,0.055,0.8445
-0.9985,-1.1475,-0.1505,1.0725,-0.4235,-0.6485,-1.1905,-1.511,-1.662,-1.055,0.3935,0.3365,0.1175,0.051,0.82
-1.013,-1.15,-0.138,1.0815,-0.437,-0.6435,-1.1785,-1.4595,-1.602,-0.9985,0.425,0.3455,0.1385,0.0515,0.791
-1.0125,-1.134,-0.122,1.073,-0.445,-0.6275,-1.1575,-1.3925,-1.529,-0.938,0.431,0.3265,0.1355,0.06,0.7515
-1.007,-1.1045,-0.0985,1.0555,-0.454,-0.601,-1.136,-1.3225,-1.455,-0.876,0.422,0.2895,0.1205,0.078,0.709
-0.9985,-1.0755,-0.0785,1.037,-0.4595,-0.5765,-1.1095,-1.26,-1.386,-0.814,0.433,0.267,0.11,0.099,0.667
-0.983,-1.055,-0.073,1.0195,-0.4545,-0.5635,-1.085,-1.2055,-1.329,-0.768,0.429,0.237,0.092,0.1085,0.633
-0.9655,-1.0315,-0.0675,0.9985,-0.449,-0.549,-1.058,-1.1515,-1.275,-0.731,0.4035,0.19,0.061,0.112,0.6015
-0.9435,-1.0035,-0.0615,0.974,-0.441,-0.532,-1.034,-1.1085,-1.229,-0.6895,0.409,0.1655,0.0435,0.116,0.569
-0.924,-0.982,-0.059,0.9535,-0.4325,-0.52,-1.016,-1.0735,-1.1925,-0.651,0.426,0.156,0.0385,0.121,0.54
-0.9075,-0.9645,-0.058,0.936,-0.4245,-0.5105,-0.994,-1.0425,-1.1625,-0.629,0.417,0.1325,0.018,0.1275,0.514
-0.891,-0.946,-0.056,0.9185,-0.417,-0.5005,-0.9725,-1.0205,-1.1435,-0.6215,0.3965,0.1075,-0.0055,0.131,0.494
-0.8785,-0.9315,-0.054,0.905,-0.412,-0.4925,-0.9575,-1.001,-1.124,-0.61,0.3825,0.0855,-0.023,0.1345,0.4775
-0.8685,-0.923,-0.0555,0.896,-0.406,-0.489,-0.9455,-0.9815,-1.105,-0.5975,0.3735,0.067,-0.036,0.136,0.466
-0.859,-0.9125,-0.0545,0.886,-0.402,-0.483,-0.936,-0.9665,-1.0915,-0.5905,0.359,0.0485,-0.049,0.1385,0.455
-0.8575,-0.909,-0.052,0.8835,-0.4025,-0.48,-0.9275,-0.9555,-1.0815,-0.589,0.341,0.0305,-0.0625,0.138,0.4475
-0.855,-0.9075,-0.0535,0.8815,-0.4005,-0.48,-0.921,-0.9455,-1.073,-0.5855,0.3305,0.0205,-0.0705,0.134,0.44
-0.849,-0.903,-0.055,0.876,-0.3965,-0.4785,-0.916,-0.937,-1.065,-0.583,0.32,0.0095,-0.0795,0.1375,0.435
-0.84,-0.8955,-0.0565,0.868,-0.3915,-0.4755,-0.909,-0.9295,-1.0585,-0.5825,0.308,-0.0045,-0.0915,0.143,0.43
-0.8295,-0.881,-0.0525,0.8555,-0.3885,-0.466,-0.9015,-0.9215,-1.052,-0.5805,0.295,-0.02,-0.1075,0.1465,0.4225
-0.8165,-0.8655,-0.0495,0.841,-0.383,-0.457,-0.8955,-0.9175,-1.048,-0.583,0.2805,-0.0365,-0.1225,0.149,0.421
-0.796,-0.843,-0.0475,0.8195,-0.374,-0.4445,-0.8885,-0.916,-1.0485,-0.5895,0.262,-0.0575,-0.143,0.154,0.4165
-0.787,-0.828,-0.0415,0.8075,-0.3725,-0.434,-0.8835,-0.9105,-1.044,-0.5885,0.2515,-0.068,-0.1535,0.1595,0.4105
-0.7765,-0.8155,-0.039,0.796,-0.3685,-0.4265,-0.8785,-0.9065,-1.04,-0.5875,0.243,-0.0785,-0.1615,0.1665,0.4065
-0.763,-0.7985,-0.036,0.781,-0.3635,-0.4165,-0.873,-0.9025,-1.039,-0.589,0.231,-0.0935,-0.177,0.1685,0.4015
-0.755,-0.7885,-0.034,0.772,-0.3605,-0.4105,-0.868,-0.8995,-1.036,-0.5875,0.2265,-0.098,-0.184,0.1655,0.3975
-0.753,-0.785,-0.0325,0.769,-0.36,-0.408,-0.8665,-0.896,-1.0325,-0.5875,0.2215,-0.1045,-0.1865,0.17,0.396
-0.7535,-0.788,-0.035,0.771,-0.359,-0.411,-0.8665,-0.892,-1.029,-0.586,0.221,-0.107,-0.1865,0.172,0.397
-0.753,-0.7905,-0.0385,0.7715,-0.357,-0.414,-0.867,-0.8885,-1.0245,-0.582,0.2235,-0.105,-0.183,0.167,0.396
-0.753,-0.789,-0.0365,0.771,-0.358,-0.412,-0.8655,-0.883,-1.02,-0.577,0.2245,-0.105,-0.184,0.1705,0.3925
-0.752,-0.786,-0.0345,0.769,-0.3585,-0.4095,-0.864,-0.882,-1.0165,-0.5755,0.2235,-0.1085,-0.1875,0.1725,0.3895
-0.754,-0.7825,-0.0295,0.7685,-0.362,-0.4055,-0.866,-0.8805,-1.015,-0.5745,0.2225,-0.111,-0.1855,0.1745,0.3885
-0.7535,-0.78,-0.027,0.7665,-0.363,-0.4025,-0.8635,-0.876,-1.0125,-0.5725,0.2235,-0.111,-0.1855,0.1815,0.385
-0.7575,-0.7815,-0.0245,0.77,-0.366,-0.4025,-0.863,-0.875,-1.0115,-0.572,0.223,-0.113,-0.1855,0.1785,0.3825
-0.753,-0.7795,-0.027,0.7665,-0.363,-0.4025,-0.861,-0.873,-1.009,-0.5705,0.223,-0.1135,-0.188,0.1765,0.383
-0.7455,-0.7735,-0.0285,0.7595,-0.358,-0.4,-0.8595,-0.869,-1.0065,-0.5685,0.221,-0.116,-0.192,0.178,0.3795
-0.751,-0.7725,-0.0225,0.762,-0.364,-0.397,-0.8595,-0.867,-1.0045,-0.566,0.221,-0.118,-0.1905,0.177,0.3785
-0.7495,-0.7715,-0.022,0.7605,-0.3635,-0.396,-0.8585,-0.868,-1.0035,-0.5665,0.2205,-0.1205,-0.192,0.1775,0.381
-0.7445,-0.7695,-0.0255,0.757,-0.3595,-0.397,-0.858,-0.867,-1.0025,-0.5665,0.218,-0.1235,-0.195,0.178,0.378
-0.747,-0.7695,-0.023,0.758,-0.3615,-0.3955,-0.855,-0.863,-0.999,-0.564,0.217,-0.1225,-0.195,0.179,0.375
-0.7485,-0.77,-0.022,0.759,-0.363,-0.3955,-0.855,-0.862,-0.998,-0.5645,0.216,-0.123,-0.1955,0.1805,0.3755
-0.7465,-0.771,-0.025,0.7585,-0.3605,-0.397,-0.856,-0.8605,-0.9965,-0.565,0.214,-0.1255,-0.197,0.183,0.375
-0.7455,-0.7705,-0.0255,0.758,-0.3595,-0.397,-0.8585,-0.861,-0.9965,-0.5675,0.211,-0.126,-0.1955,0.185,0.3755
-0.7445,-0.767,-0.023,0.7555,-0.3605,-0.3945,-0.8585,-0.8595,-0.9945,-0.5645,0.2135,-0.125,-0.193,0.185,0.3735
-0.746,-0.7635,-0.018,0.755,-0.364,-0.39,-0.8585,-0.858,-0.991,-0.5615,0.2135,-0.125,-0.195,0.1885,0.3705
-0.748,-0.766,-0.0185,0.757,-0.3645,-0.3915,-0.861,-0.8595,-0.9925,-0.5605,0.2135,-0.124,-0.194,0.187,0.372
-0.7445,-0.77,-0.0265,0.757,-0.3585,-0.3975,-0.859,-0.857,-0.9905,-0.559,0.214,-0.124,-0.1945,0.186,0.372
-0.7415,-0.7735,-0.032,0.7575,-0.3545,-0.402,-0.8595,-0.8565,-0.9885,-0.5585,0.2155,-0.1225,-0.194,0.18,0.372
-0.7435,-0.7735,-0.0305,0.7585,-0.356,-0.4015,-0.8585,-0.854,-0.986,-0.554,0.2195,-0.118,-0.1925,0.175,0.37
-0.7385,-0.77,-0.0325,0.754,-0.353,-0.4005,-0.8595,-0.8545,-0.988,-0.559,0.2135,-0.1245,-0.1995,0.18,0.371
-0.7375,-0.7675,-0.0305,0.7525,-0.353,-0.398,-0.861,-0.8575,-0.99,-0.5635,0.213,-0.1275,-0.202,0.182,0.3725
-0.739,-0.769,-0.0305,0.754,-0.354,-0.399,-0.859,-0.8545,-0.9855,-0.56,0.2165,-0.124,-0.2005,0.1815,0.37
-0.741,-0.774,-0.034,0.7575,-0.353,-0.4035,-0.86,-0.8535,-0.9845,-0.5575,0.215,-0.125,-0.2,0.1805,0.3685
-0.7415,-0.773,-0.032,0.757,-0.3545,-0.4015,-0.858,-0.8495,-0.983,-0.5565,0.213,-0.127,-0.204,0.1835,0.3665
-0.736,-0.7695,-0.0335,0.7525,-0.351,-0.4005,-0.8585,-0.849,-0.982,-0.5565,0.2095,-0.1295,-0.2055,0.1815,0.3695
-0.733,-0.7685,-0.036,0.7505,-0.348,-0.4015,-0.859,-0.848,-0.98,-0.5545,0.209,-0.1315,-0.2055,0.181,0.37
-0.729,-0.7685,-0.0395,0.7485,-0.3445,-0.403,-0.856,-0.8445,-0.9775,-0.551,0.2085,-0.132,-0.2075,0.1835,0.365
-0.733,-0.7695,-0.037,0.7515,-0.348,-0.4025,-0.859,-0.844,-0.9755,-0.547,0.2105,-0.1295,-0.203,0.184,0.3655
-0.739,-0.7695,-0.031,0.754,-0.354,-0.3995,-0.8615,-0.8425,-0.9735,-0.545,0.2145,-0.126,-0.1965,0.185,0.368
-0.7335,-0.765,-0.0315,0.749,-0.351,-0.3975,-0.86,-0.8425,-0.9735,-0.545,0.213,-0.1285,-0.198,0.187,0.367
-0.731,-0.7615,-0.031,0.746,-0.3495,-0.3955,-0.86,-0.8425,-0.972,-0.545,0.212,-0.13,-0.2,0.1925,0.3675
-0.7315,-0.762,-0.031,0.747,-0.35,-0.3955,-0.862,-0.8415,-0.9705,-0.5435,0.212,-0.131,-0.197,0.1885,0.3695
-0.7345,-0.7625,-0.0285,0.7485,-0.3525,-0.3945,-0.86,-0.8385,-0.966,-0.54,0.213,-0.1305,-0.195,0.181,0.366
-0.736,-0.7615,-0.026,0.7485,-0.355,-0.393,-0.858,-0.836,-0.9625,-0.538,0.214,-0.1295,-0.195,0.1845,0.3635
-0.738,-0.761,-0.0235,0.7495,-0.357,-0.3915,-0.8585,-0.8335,-0.959,-0.5355,0.215,-0.1295,-0.1935,0.1885,0.3625
-0.746,-0.767,-0.021,0.7565,-0.362,-0.3935,-0.863,-0.834,-0.9595,-0.536,0.216,-0.128,-0.1875,0.189,0.365
-0.745,-0.765,-0.0205,0.755,-0.362,-0.392,-0.8625,-0.834,-0.96,-0.5375,0.216,-0.1295,-0.188,0.1895,0.368
-0.738,-0.7585,-0.021,0.7485,-0.3585,-0.389,-0.859,-0.8305,-0.956,-0.5345,0.218,-0.131,-0.1915,0.188,0.366
-0.7375,-0.762,-0.025,0.75,-0.356,-0.393,-0.862,-0.832,-0.9575,-0.535,0.2165,-0.1315,-0.1915,0.183,0.3655
-0.743,-0.763,-0.021,0.753,-0.3605,-0.3915,-0.8635,-0.8315,-0.956,-0.535,0.216,-0.1305,-0.1925,0.179,0.3645
-0.749,-0.7585,-0.01,0.754,-0.369,-0.3835,-0.867,-0.8305,-0.9555,-0.535,0.215,-0.1325,-0.189,0.184,0.365
-0.7475,-0.7555,-0.0085,0.7515,-0.369,-0.3815,-0.87,-0.8305,-0.9575,-0.535,0.214,-0.1345,-0.1875,0.1855,0.366
-0.7475,-0.756,-0.009,0.7515,-0.369,-0.3815,-0.869,-0.828,-0.954,-0.532,0.216,-0.133,-0.1865,0.1855,0.364
-0.7525,-0.7545,-0.0025,0.7535,-0.3745,-0.3775,-0.868,-0.824,-0.95,-0.529,0.217,-0.1315,-0.1855,0.187,0.3625
-0.748,-0.7515,-0.004,0.75,-0.372,-0.377,-0.868,-0.823,-0.9485,-0.5285,0.2165,-0.1325,-0.187,0.1885,0.3595
-0.7465,-0.7535,-0.008,0.75,-0.369,-0.38,-0.8675,-0.821,-0.9465,-0.527,0.217,-0.1315,-0.1865,0.19,0.3565
-0.7475,-0.7535,-0.0065,0.7505,-0.37,-0.3795,-0.8675,-0.818,-0.943,-0.5245,0.219,-0.1305,-0.1855,0.193,0.3565
-0.746,-0.753,-0.0075,0.7495,-0.369,-0.3795,-0.87,-0.8175,-0.9415,-0.5235,0.219,-0.131,-0.185,0.193,0.3555
-0.747,-0.756,-0.0095,0.7515,-0.3685,-0.382,-0.8695,-0.8145,-0.939,-0.5195,0.2225,-0.128,-0.182,0.1915,0.3545
-0.747,-0.757,-0.0105,0.752,-0.368,-0.383,-0.8665,-0.8105,-0.935,-0.5155,0.2245,-0.1275,-0.1825,0.1925,0.3545
-0.7455,-0.759,-0.014,0.7525,-0.3655,-0.3855,-0.866,-0.8095,-0.9325,-0.513,0.225,-0.1275,-0.1835,0.1915,0.352
-0.7455,-0.761,-0.016,0.7535,-0.3645,-0.388,-0.8645,-0.808,-0.931,-0.5105,0.2255,-0.1275,-0.185,0.19,0.351
-0.748,-0.7645,-0.017,0.756,-0.3655,-0.39,-0.8645,-0.8065,-0.9275,-0.5085,0.226,-0.127,-0.1855,0.1855,0.3515
-0.747,-0.7625,-0.016,0.755,-0.3655,-0.3885,-0.864,-0.804,-0.9265,-0.5065,0.2285,-0.1265,-0.184,0.1875,0.353
-0.748,-0.7585,-0.011,0.7535,-0.3685,-0.384,-0.863,-0.803,-0.9255,-0.5055,0.2265,-0.129,-0.185,0.1925,0.354
-0.747,-0.759,-0.0125,0.753,-0.367,-0.385,-0.8645,-0.802,-0.924,-0.5035,0.2255,-0.1295,-0.185,0.1955,0.3565
-0.741,-0.757,-0.0165,0.749,-0.362,-0.386,-0.862,-0.797,-0.92,-0.501,0.228,-0.1295,-0.186,0.195,0.3585
-0.7405,-0.7575,-0.0175,0.749,-0.3615,-0.387,-0.8625,-0.7945,-0.9165,-0.497,0.23,-0.128,-0.185,0.19,0.3555
-0.7445,-0.76,-0.016,0.752,-0.3635,-0.3875,-0.863,-0.7935,-0.9145,-0.4955,0.2325,-0.128,-0.182,0.1935,0.353
-0.7425,-0.758,-0.016,0.7505,-0.363,-0.386,-0.861,-0.791,-0.911,-0.4945,0.232,-0.1285,-0.1835,0.2,0.349
-0.744,-0.756,-0.0125,0.75,-0.3655,-0.3835,-0.86,-0.7875,-0.909,-0.49,0.234,-0.1285,-0.1835,0.203,0.3455
-0.7485,-0.7585,-0.01,0.7535,-0.369,-0.3835,-0.859,-0.7835,-0.904,-0.485,0.237,-0.126,-0.1805,0.2015,0.3435
-0.749,-0.76,-0.0115,0.7545,-0.3685,-0.385,-0.8585,-0.78,-0.9005,-0.482,0.2385,-0.1255,-0.1785,0.197,0.3435
-0.7545,-0.761,-0.0065,0.7575,-0.3735,-0.383,-0.859,-0.776,-0.896,-0.478,0.243,-0.122,-0.173,0.196,0.342
-0.754,-0.761,-0.0075,0.7575,-0.373,-0.3835,-0.859,-0.7745,-0.8925,-0.4755,0.2445,-0.1235,-0.173,0.193,0.339
-0.753,-0.76,-0.0075,0.7565,-0.3725,-0.383,-0.86,-0.7735,-0.8915,-0.472,0.246,-0.124,-0.1715,0.1935,0.338
-0.756,-0.7585,-0.003,0.757,-0.376,-0.38,-0.8595,-0.7695,-0.885,-0.4655,0.251,-0.1195,-0.167,0.2005,0.3375
-0.7555,-0.7555,-0.001,0.7555,-0.377,-0.3775,-0.8605,-0.768,-0.8825,-0.4635,0.2505,-0.1215,-0.168,0.2015,0.3355
-0.7585,-0.7585,-0.0005,0.7585,-0.3785,-0.379,-0.861,-0.766,-0.8805,-0.4615,0.2515,-0.121,-0.166,0.2065,0.332
-0.7545,-0.756,-0.002,0.7555,-0.376,-0.378,-0.859,-0.763,-0.8775,-0.462,0.2475,-0.1255,-0.171,0.209,0.332
-0.756,-0.754,0.0015,0.755,-0.3785,-0.3755,-0.859,-0.761,-0.875,-0.46,0.248,-0.1255,-0.1685,0.2035,0.333
-0.763,-0.7545,0.008,0.7585,-0.3855,-0.3725,-0.8575,-0.7585,-0.8705,-0.454,0.253,-0.124,-0.161,0.2015,0.3315
-0.7665,-0.7525,0.0135,0.7595,-0.3895,-0.3685,-0.8575,-0.755,-0.867,-0.451,0.252,-0.127,-0.1625,0.209,0.3285
-0.7695,-0.7525,0.016,0.761,-0.3925,-0.3675,-0.856,-0.751,-0.8625,-0.4465,0.253,-0.1265,-0.1585,0.2155,0.326
-0.762,-0.7435,0.0185,0.7525,-0.39,-0.3615,-0.855,-0.75,-0.859,-0.445,0.2525,-0.1285,-0.159,0.214,0.325
-0.7635,-0.7435,0.0195,0.7535,-0.391,-0.361,-0.857,-0.747,-0.8555,-0.441,0.2555,-0.1265,-0.1575,0.2145,0.324
-0.7685,-0.7455,0.022,0.757,-0.395,-0.361,-0.8565,-0.742,-0.851,-0.434,0.2595,-0.1225,-0.152,0.217,0.323
-0.762,-0.7405,0.021,0.751,-0.3915,-0.359,-0.854,-0.739,-0.8475,-0.4335,0.257,-0.1235,-0.155,0.2165,0.322
-0.76,-0.7405,0.0185,0.75,-0.389,-0.36,-0.8535,-0.736,-0.8435,-0.431,0.2575,-0.1255,-0.1575,0.218,0.32
-0.7605,-0.74,0.0195,0.7505,-0.39,-0.3595,-0.8555,-0.7335,-0.839,-0.426,0.26,-0.1225,-0.1565,0.2225,0.3175
-0.7655,-0.7435,0.021,0.7545,-0.393,-0.3605,-0.856,-0.731,-0.834,-0.423,0.263,-0.1195,-0.154,0.2235,0.315
-0.7705,-0.7475,0.022,0.759,-0.396,-0.362,-0.8565,-0.727,-0.8305,-0.4185,0.265,-0.1175,-0.1515,0.2235,0.3135
-0.7665,-0.7445,0.0215,0.756,-0.394,-0.3605,-0.8545,-0.7255,-0.8285,-0.4175,0.2655,-0.1155,-0.153,0.221,0.311
-0.7615,-0.7425,0.0185,0.752,-0.3895,-0.3615,-0.8515,-0.723,-0.826,-0.4145,0.2675,-0.1145,-0.1545,0.2145,0.3075
-0.763,-0.744,0.0185,0.7535,-0.3905,-0.362,-0.85,-0.7175,-0.821,-0.4105,0.2675,-0.1135,-0.1555,0.2085,0.304
-0.765,-0.7435,0.0205,0.7545,-0.3925,-0.3605,-0.85,-0.7145,-0.816,-0.4065,0.27,-0.111,-0.1555,0.2115,0.303
-0.758,-0.7405,0.017,0.7495,-0.387,-0.361,-0.85,-0.713,-0.813,-0.403,0.2715,-0.11,-0.1555,0.2155,0.304
-0.7575,-0.739,0.018,0.7485,-0.3875,-0.36,-0.849,-0.709,-0.808,-0.398,0.273,-0.1095,-0.1545,0.218,0.3
-0.76,-0.7375,0.0215,0.7485,-0.3905,-0.3575,-0.8485,-0.7035,-0.802,-0.391,0.2765,-0.1105,-0.153,0.2225,0.2965
-0.76,-0.738,0.022,0.749,-0.391,-0.3575,-0.848,-0.699,-0.797,-0.388,0.278,-0.1115,-0.152,0.2255,0.294
-0.7695,-0.742,0.027,0.756,-0.398,-0.357,-0.848,-0.6955,-0.792,-0.3825,0.2795,-0.1105,-0.1495,0.221,0.295
-0.775,-0.744,0.0305,0.7595,-0.4025,-0.356,-0.846,-0.69,-0.7855,-0.376,0.2825,-0.1085,-0.1475,0.2165,0.2935
-0.7745,-0.7435,0.0305,0.759,-0.402,-0.356,-0.845,-0.686,-0.7805,-0.372,0.2855,-0.106,-0.1455,0.2195,0.289
-0.774,-0.738,0.036,0.756,-0.405,-0.35,-0.8455,-0.6845,-0.777,-0.3685,0.2865,-0.1055,-0.144,0.2265,0.2865
-0.774,-0.7325,0.041,0.753,-0.4075,-0.3445,-0.8455,-0.682,-0.774,-0.365,0.288,-0.104,-0.142,0.2295,0.284
-0.7735,-0.73,0.043,0.7515,-0.408,-0.343,-0.8455,-0.681,-0.7745,-0.3645,0.288,-0.106,-0.145,0.2245,0.284
-0.77,-0.7245,0.0445,0.7475,-0.407,-0.3395,-0.8455,-0.6785,-0.7705,-0.362,0.288,-0.1065,-0.1475,0.2285,0.2815
-0.778,-0.728,0.0495,0.753,-0.4135,-0.3385,-0.848,-0.674,-0.7645,-0.3555,0.292,-0.1035,-0.1405,0.2325,0.282
-0.7795,-0.727,0.052,0.753,-0.4155,-0.3365,-0.848,-0.672,-0.7615,-0.353,0.2935,-0.103,-0.137,0.23,0.2825
-0.7765,-0.719,0.057,0.7475,-0.416,-0.3305,-0.849,-0.6695,-0.757,-0.348,0.296,-0.102,-0.1345,0.233,0.279
-0.7855,-0.7165,0.068,0.751,-0.4265,-0.3235,-0.851,-0.666,-0.752,-0.3425,0.301,-0.0965,-0.1275,0.243,0.2785
-0.79,-0.7175,0.072,0.7535,-0.4305,-0.322,-0.8525,-0.664,-0.7505,-0.342,0.3,-0.099,-0.1255,0.2485,0.2785
-0.79,-0.7145,0.075,0.7525,-0.4325,-0.319,-0.8515,-0.6595,-0.746,-0.3385,0.3005,-0.0995,-0.1275,0.2485,0.2745
-0.788,-0.7095,0.0775,0.749,-0.4325,-0.3155,-0.8495,-0.658,-0.743,-0.335,0.3015,-0.099,-0.1255,0.2525,0.2705
-0.792,-0.711,0.0805,0.7515,-0.436,-0.3145,-0.852,-0.656,-0.74,-0.3325,0.302,-0.0995,-0.1185,0.2525,0.2725
-0.7915,-0.705,0.086,0.748,-0.4385,-0.3085,-0.8545,-0.654,-0.7355,-0.3275,0.304,-0.0975,-0.115,0.258,0.275
-0.7925,-0.705,0.087,0.749,-0.4395,-0.308,-0.857,-0.6525,-0.733,-0.3235,0.3065,-0.0955,-0.1115,0.259,0.274
-0.792,-0.706,0.0855,0.749,-0.4385,-0.3095,-0.854,-0.6505,-0.7285,-0.32,0.3095,-0.094,-0.11,0.2575,0.2705
-0.791,-0.7045,0.0865,0.748,-0.4385,-0.3085,-0.8535,-0.65,-0.7265,-0.3175,0.311,-0.0925,-0.1095,0.2605,0.271
-0.7955,-0.707,0.088,0.751,-0.4415,-0.3085,-0.8555,-0.6485,-0.723,-0.3145,0.315,-0.088,-0.1055,0.258,0.272
-0.7935,-0.706,0.087,0.75,-0.44,-0.309,-0.8575,-0.6485,-0.722,-0.3115,0.3145,-0.0905,-0.1065,0.263,0.271
-0.8035,-0.7075,0.096,0.7555,-0.4495,-0.305,-0.857,-0.6455,-0.7185,-0.3075,0.315,-0.088,-0.104,0.269,0.2675
-0.7985,-0.7015,0.0965,0.75,-0.447,-0.302,-0.8545,-0.643,-0.7145,-0.3055,0.3165,-0.088,-0.103,0.269,0.268
-0.789,-0.6985,0.09,0.7435,-0.439,-0.3035,-0.8555,-0.645,-0.7155,-0.3055,0.3135,-0.094,-0.1085,0.2655,0.2655
-0.792,-0.702,0.09,0.747,-0.4405,-0.305,-0.856,-0.6425,-0.714,-0.303,0.3155,-0.092,-0.108,0.2615,0.261
-0.791,-0.699,0.091,0.745,-0.441,-0.303,-0.857,-0.6425,-0.7125,-0.2985,0.32,-0.089,-0.1045,0.262,0.2605
-0.7945,-0.692,0.1015,0.743,-0.4475,-0.2945,-0.8575,-0.641,-0.7075,-0.293,0.3265,-0.0835,-0.1,0.264,0.2575
-0.7975,-0.691,0.1065,0.7445,-0.4515,-0.2915,-0.861,-0.6395,-0.7045,-0.2895,0.33,-0.0785,-0.0955,0.2655,0.2585
-0.7985,-0.69,0.1085,0.7445,-0.4535,-0.29,-0.863,-0.6415,-0.7075,-0.2905,0.33,-0.077,-0.096,0.271,0.258
-0.7995,-0.6875,0.112,0.7435,-0.4555,-0.287,-0.8655,-0.6425,-0.7085,-0.2935,0.327,-0.0795,-0.101,0.274,0.2585
-0.8005,-0.687,0.113,0.7435,-0.4565,-0.2865,-0.869,-0.6445,-0.709,-0.291,0.3285,-0.0765,-0.095,0.2745,0.2605
-0.803,-0.6895,0.113,0.7465,-0.4575,-0.2875,-0.8695,-0.6455,-0.7085,-0.29,0.3305,-0.075,-0.0935,0.278,0.2615
-0.803,-0.6905,0.1125,0.747,-0.4575,-0.288,-0.87,-0.645,-0.7085,-0.292,0.328,-0.0785,-0.1015,0.275,0.263
-0.8005,-0.686,0.114,0.743,-0.457,-0.285,-0.8705,-0.6445,-0.709,-0.2895,0.3305,-0.0765,-0.1005,0.2825,0.2605
-0.7975,-0.6815,0.1155,0.7395,-0.4565,-0.282,-0.8705,-0.6465,-0.7105,-0.29,0.33,-0.075,-0.1,0.296,0.261
-0.7975,-0.6765,0.1205,0.737,-0.459,-0.2775,-0.87,-0.6485,-0.7125,-0.2915,0.3305,-0.074,-0.102,0.3045,0.262
-0.801,-0.675,0.1255,0.738,-0.463,-0.274,-0.8705,-0.646,-0.708,-0.288,0.335,-0.071,-0.1,0.305,0.26
-0.803,-0.6745,0.128,0.7385,-0.465,-0.2725,-0.874,-0.6475,-0.708,-0.2865,0.3365,-0.069,-0.097,0.3015,0.262
-0.8025,-0.6715,0.1305,0.737,-0.4665,-0.27,-0.877,-0.6495,-0.7115,-0.288,0.337,-0.0685,-0.0975,0.304,0.2625
-0.799,-0.6675,0.131,0.7335,-0.465,-0.2675,-0.8775,-0.651,-0.712,-0.289,0.3365,-0.0695,-0.099,0.306,0.2615
-0.7995,-0.663,0.136,0.731,-0.4675,-0.2625,-0.8795,-0.656,-0.715,-0.292,0.3345,-0.0715,-0.0985,0.31,0.2615
-0.803,-0.6605,0.142,0.7315,-0.472,-0.2585,-0.8825,-0.6585,-0.7165,-0.291,0.336,-0.07,-0.093,0.311,0.264
-0.808,-0.661,0.1465,0.7345,-0.477,-0.2565,-0.8855,-0.6605,-0.718,-0.291,0.338,-0.0655,-0.088,0.31,0.2675
-0.81,-0.6605,0.149,0.735,-0.479,-0.2555,-0.887,-0.6635,-0.72,-0.291,0.34,-0.061,-0.084,0.3095,0.266
-0.8085,-0.659,0.149,0.7335,-0.4785,-0.255,-0.888,-0.6655,-0.721,-0.291,0.341,-0.06,-0.08,0.313,0.269
-0.809,-0.655,0.1535,0.732,-0.4805,-0.2505,-0.8935,-0.6705,-0.7245,-0.2925,0.3405,-0.06,-0.077,0.3135,0.2735
-0.8095,-0.652,0.157,0.731,-0.483,-0.247,-0.896,-0.674,-0.7265,-0.291,0.344,-0.0565,-0.073,0.313,0.275
-0.8165,-0.653,0.163,0.735,-0.4895,-0.245,-0.8995,-0.678,-0.729,-0.293,0.3455,-0.054,-0.069,0.3175,0.275
-0.819,-0.6525,0.166,0.736,-0.492,-0.243,-0.9035,-0.6815,-0.7315,-0.293,0.347,-0.052,-0.067,0.3165,0.2755
-0.8135,-0.6445,0.168,0.729,-0.4905,-0.238,-0.9055,-0.685,-0.735,-0.2965,0.3435,-0.057,-0.073,0.32,0.2765
-0.8085,-0.6395,0.1685,0.724,-0.4885,-0.235,-0.909,-0.692,-0.741,-0.3015,0.339,-0.061,-0.0775,0.326,0.28
-0.81,-0.639,0.1705,0.7245,-0.49,-0.234,-0.9115,-0.699,-0.748,-0.3045,0.339,-0.0605,-0.078,0.33,0.2825
-0.8095,-0.635,0.1735,0.722,-0.491,-0.2305,-0.916,-0.7065,-0.755,-0.3115,0.3355,-0.063,-0.08,0.3345,0.2825
-0.8055,-0.6305,0.1745,0.718,-0.49,-0.2275,-0.918,-0.712,-0.761,-0.3145,0.3345,-0.0615,-0.0805,0.3365,0.286
-0.808,-0.626,0.1815,0.717,-0.4945,-0.2215,-0.9205,-0.718,-0.7655,-0.317,0.335,-0.058,-0.079,0.3395,0.287
-0.811,-0.63,0.1805,0.7205,-0.4955,-0.2245,-0.9245,-0.723,-0.771,-0.32,0.3385,-0.0535,-0.074,0.337,0.291
-0.812,-0.6335,0.178,0.723,-0.495,-0.2275,-0.925,-0.727,-0.776,-0.3215,0.34,-0.051,-0.074,0.338,0.294
-0.812,-0.632,0.1795,0.722,-0.4955,-0.226,-0.927,-0.7335,-0.7815,-0.325,0.338,-0.0505,-0.076,0.339,0.2955
-0.814,-0.6335,0.18,0.7235,-0.4965,-0.2265,-0.9325,-0.7415,-0.7885,-0.33,0.338,-0.05,-0.0755,0.336,0.3005
-0.8175,-0.636,0.181,0.7265,-0.499,-0.227,-0.938,-0.75,-0.7965,-0.338,0.336,-0.049,-0.074,0.3345,0.3055
-0.818,-0.6365,0.181,0.7275,-0.4995,-0.2275,-0.942,-0.76,-0.805,-0.345,0.334,-0.047,-0.072,0.3355,0.308
-0.821,-0.6395,0.181,0.73,-0.5005,-0.229,-0.947,-0.769,-0.815,-0.3525,0.3335,-0.046,-0.072,0.336,0.3135
-0.8245,-0.641,0.183,0.733,-0.5035,-0.229,-0.9535,-0.779,-0.824,-0.359,0.3345,-0.044,-0.0715,0.3385,0.3175
-0.8255,-0.6375,0.1875,0.7315,-0.506,-0.225,-0.958,-0.7865,-0.8315,-0.3635,0.3375,-0.0415,-0.07,0.342,0.3195
-0.8215,-0.632,0.189,0.727,-0.505,-0.221,-0.961,-0.793,-0.839,-0.3695,0.338,-0.0405,-0.0675,0.34,0.3235
-0.821,-0.631,0.1895,0.726,-0.505,-0.2205,-0.965,-0.8015,-0.847,-0.375,0.3365,-0.0395,-0.0665,0.34,0.3265
-0.8205,-0.634,0.186,0.727,-0.503,-0.2235,-0.967,-0.8095,-0.8575,-0.383,0.3335,-0.041,-0.0695,0.334,0.332
-0.815,-0.631,0.1835,0.723,-0.499,-0.2235,-0.9675,-0.818,-0.866,-0.3915,0.333,-0.039,-0.0725,0.3315,0.3365
-0.81,-0.631,0.1785,0.7205,-0.494,-0.226,-0.968,-0.827,-0.876,-0.4015,0.3295,-0.0395,-0.0775,0.3355,0.3405
-0.8035,-0.6325,0.1705,0.718,-0.4865,-0.231,-0.9685,-0.8365,-0.8885,-0.4135,0.3205,-0.048,-0.086,0.3315,0.345
-0.805,-0.631,0.1735,0.718,-0.489,-0.2285,-0.9655,-0.8435,-0.8945,-0.418,0.3215,-0.0445,-0.0835,0.3345,0.345
-0.8115,-0.6365,0.1745,0.724,-0.4925,-0.2305,-0.9675,-0.849,-0.901,-0.4215,0.3245,-0.04,-0.0775,0.33,0.348
-0.8105,-0.637,0.173,0.7235,-0.4915,-0.2315,-0.972,-0.8565,-0.909,-0.428,0.324,-0.039,-0.076,0.324,0.3555
-0.8075,-0.6355,0.1715,0.7215,-0.4895,-0.2315,-0.974,-0.8645,-0.9185,-0.4365,0.323,-0.0395,-0.076,0.3265,0.3575
-0.8105,-0.6405,0.1695,0.7255,-0.4895,-0.235,-0.9775,-0.8725,-0.929,-0.4475,0.3185,-0.043,-0.0795,0.3235,0.36
-0.808,-0.641,0.1665,0.7245,-0.487,-0.237,-0.978,-0.8795,-0.9385,-0.456,0.317,-0.042,-0.0815,0.3185,0.365
-0.805,-0.6455,0.159,0.7255,-0.482,-0.243,-0.9785,-0.884,-0.946,-0.4665,0.3155,-0.044,-0.087,0.3125,0.366
-0.8,-0.645,0.154,0.7225,-0.4765,-0.2455,-0.9775,-0.889,-0.954,-0.476,0.311,-0.047,-0.093,0.315,0.3685
-0.792,-0.644,0.147,0.718,-0.4695,-0.248,-0.975,-0.8955,-0.9625,-0.484,0.307,-0.049,-0.097,0.3165,0.374
-0.7945,-0.649,0.145,0.7215,-0.4695,-0.252,-0.9745,-0.9005,-0.9705,-0.4895,0.307,-0.0485,-0.1,0.3115,0.377
-0.8,-0.654,0.146,0.727,-0.4725,-0.2535,-0.9765,-0.9065,-0.9765,-0.4935,0.3075,-0.047,-0.099,0.3115,0.3785
-0.7985,-0.6555,0.1425,0.727,-0.4705,-0.256,-0.9755,-0.9115,-0.982,-0.5005,0.3035,-0.049,-0.1015,0.3085,0.3835
-0.796,-0.655,0.1405,0.7255,-0.468,-0.257,-0.9735,-0.9135,-0.9865,-0.5055,0.3,-0.05,-0.105,0.306,0.3855
-0.7955,-0.6595,0.1355,0.7275,-0.465,-0.2615,-0.972,-0.917,-0.991,-0.5085,0.301,-0.048,-0.107,0.303,0.387
-0.792,-0.663,0.1285,0.7275,-0.46,-0.2665,-0.971,-0.9205,-0.997,-0.515,0.3,-0.047,-0.11,0.298,0.392
-0.789,-0.6675,0.121,0.728,-0.4545,-0.2725,-0.9705,-0.9265,-1.005,-0.5235,0.294,-0.052,-0.117,0.291,0.3935
-0.7885,-0.673,0.115,0.731,-0.4515,-0.278,-0.972,-0.934,-1.013,-0.5325,0.289,-0.055,-0.12,0.287,0.3965
-0.7865,-0.6755,0.1105,0.731,-0.4485,-0.2815,-0.9705,-0.938,-1.02,-0.538,0.288,-0.0545,-0.12,0.2895,0.3975
-0.7845,-0.6765,0.1075,0.7305,-0.4455,-0.2835,-0.9685,-0.941,-1.025,-0.542,0.287,-0.0555,-0.1245,0.288,0.397
-0.7835,-0.678,0.105,0.731,-0.444,-0.286,-0.9685,-0.946,-1.029,-0.549,0.2835,-0.0575,-0.127,0.282,0.4015
-0.779,-0.679,0.099,0.729,-0.439,-0.289,-0.969,-0.9525,-1.0375,-0.556,0.2805,-0.0605,-0.129,0.2785,0.4055
-0.776,-0.6785,0.0965,0.7275,-0.436,-0.29,-0.9685,-0.957,-1.0455,-0.563,0.2775,-0.0625,-0.1325,0.277,0.405
-0.779,-0.682,0.0965,0.7305,-0.4375,-0.292,-0.9655,-0.9575,-1.0495,-0.5665,0.2745,-0.062,-0.1345,0.2785,0.4045
-0.779,-0.684,0.0945,0.7315,-0.4365,-0.294,-0.965,-0.96,-1.0515,-0.57,0.2735,-0.0615,-0.135,0.276,0.4055
-0.772,-0.685,0.0865,0.7285,-0.429,-0.2985,-0.962,-0.963,-1.0565,-0.5775,0.2695,-0.067,-0.1395,0.269,0.4065
-0.7695,-0.6865,0.0825,0.728,-0.426,-0.301,-0.96,-0.9665,-1.062,-0.5835,0.2655,-0.0685,-0.141,0.2645,0.4075
-0.7695,-0.686,0.0835,0.728,-0.426,-0.3005,-0.961,-0.9695,-1.0665,-0.5875,0.2635,-0.0695,-0.144,0.2675,0.4085
-0.766,-0.687,0.0785,0.7265,-0.422,-0.3035,-0.9605,-0.9725,-1.0715,-0.592,0.2605,-0.0735,-0.1475,0.2685,0.4105
-0.769,-0.691,0.0775,0.73,-0.423,-0.306,-0.961,-0.975,-1.075,-0.5955,0.259,-0.073,-0.1485,0.2665,0.4145
-0.772,-0.691,0.0805,0.732,-0.426,-0.3045,-0.96,-0.975,-1.0745,-0.596,0.2605,-0.072,-0.1475,0.272,0.4165
-0.7675,-0.691,0.0765,0.729,-0.422,-0.3065,-0.9585,-0.9765,-1.0755,-0.5975,0.2625,-0.07,-0.1465,0.2725,0.4185
-0.7595,-0.691,0.068,0.7255,-0.4135,-0.311,-0.954,-0.9765,-1.0795,-0.6025,0.256,-0.0755,-0.1555,0.2655,0.419
-0.7545,-0.6895,0.065,0.722,-0.4095,-0.3115,-0.95,-0.9765,-1.082,-0.606,0.2505,-0.0825,-0.1605,0.2615,0.4185
-0.76,-0.6895,0.07,0.725,-0.415,-0.309,-0.946,-0.9755,-1.082,-0.607,0.2505,-0.083,-0.1625,0.2625,0.4165
-0.765,-0.693,0.0715,0.729,-0.418,-0.31,-0.943,-0.9745,-1.0805,-0.608,0.25,-0.084,-0.1625,0.265,0.416
-0.756,-0.6925,0.063,0.724,-0.409,-0.314,-0.9425,-0.9775,-1.087,-0.6145,0.246,-0.089,-0.164,0.259,0.42
-0.747,-0.6875,0.0585,0.717,-0.4025,-0.3135,-0.939,-0.9775,-1.0895,-0.619,0.241,-0.092,-0.169,0.2515,0.4185
-0.746,-0.685,0.0605,0.7155,-0.403,-0.3115,-0.94,-0.9795,-1.093,-0.624,0.237,-0.095,-0.171,0.251,0.419
-0.748,-0.687,0.061,0.7175,-0.404,-0.3125,-0.942,-0.985,-1.0995,-0.6315,0.2305,-0.1015,-0.1725,0.2515,0.4235
-0.7485,-0.687,0.061,0.7175,-0.4045,-0.3125,-0.938,-0.984,-1.099,-0.632,0.231,-0.1005,-0.1715,0.2525,0.424
-0.752,-0.6895,0.062,0.7205,-0.407,-0.313,-0.938,-0.983,-1.098,-0.631,0.233,-0.098,-0.169,0.249,0.4235
-0.7535,-0.695,0.058,0.724,-0.4055,-0.318,-0.939,-0.985,-1.1005,-0.6325,0.233,-0.098,-0.17,0.243,0.4235
-0.751,-0.694,0.0565,0.7225,-0.4035,-0.318,-0.9395,-0.986,-1.103,-0.635,0.2315,-0.0985,-0.1695,0.246,0.4245
-0.75,-0.696,0.0535,0.723,-0.4015,-0.3205,-0.938,-0.986,-1.104,-0.6375,0.2285,-0.0995,-0.1725,0.248,0.424
-0.75,-0.7005,0.049,0.7255,-0.399,-0.325,-0.9365,-0.984,-1.1065,-0.6385,0.228,-0.1,-0.175,0.248,0.424
-0.754,-0.7005,0.0525,0.727,-0.403,-0.323,-0.935,-0.9835,-1.104,-0.6385,0.229,-0.0985,-0.1745,0.2565,0.424
-0.7525,-0.7035,0.0485,0.728,-0.4005,-0.3265,-0.9315,-0.982,-1.1055,-0.6405,0.227,-0.1015,-0.1785,0.255,0.423
-0.751,-0.705,0.0455,0.728,-0.398,-0.329,-0.9285,-0.982,-1.107,-0.6405,0.2265,-0.1015,-0.1815,0.2495,0.4215
-0.747,-0.7035,0.0435,0.725,-0.395,-0.329,-0.9275,-0.985,-1.109,-0.642,0.224,-0.1025,-0.186,0.247,0.4225
-0.7475,-0.705,0.042,0.726,-0.3945,-0.3305,-0.93,-0.9855,-1.1115,-0.6455,0.221,-0.107,-0.19,0.247,0.4245
-0.7445,-0.7035,0.04,0.7235,-0.392,-0.331,-0.9285,-0.985,-1.1115,-0.646,0.2205,-0.107,-0.191,0.2495,0.425
-0.7395,-0.704,0.0355,0.722,-0.3875,-0.3335,-0.926,-0.986,-1.114,-0.6475,0.2165,-0.11,-0.1925,0.247,0.4235
-0.7465,-0.7075,0.0385,0.727,-0.3925,-0.3335,-0.926,-0.9865,-1.115,-0.6495,0.215,-0.111,-0.191,0.2405,0.424
-0.7485,-0.7085,0.04,0.7285,-0.394,-0.3335,-0.9275,-0.986,-1.1165,-0.651,0.215,-0.109,-0.189,0.237,0.424
-0.7505,-0.71,0.04,0.73,-0.395,-0.3345,-0.928,-0.987,-1.1175,-0.651,0.2155,-0.1075,-0.1875,0.245,0.4235
-0.7445,-0.7065,0.038,0.7255,-0.391,-0.3335,-0.927,-0.99,-1.1205,-0.652,0.214,-0.1095,-0.1875,0.2425,0.424
-0.7395,-0.7025,0.0365,0.721,-0.3875,-0.3325,-0.9285,-0.992,-1.1215,-0.6515,0.2145,-0.109,-0.185,0.2405,0.4245
-0.7415,-0.7045,0.037,0.723,-0.389,-0.333,-0.929,-0.993,-1.1225,-0.653,0.2145,-0.11,-0.184,0.237,0.4295
-0.745,-0.704,0.0405,0.7245,-0.3925,-0.331,-0.9275,-0.9915,-1.1225,-0.655,0.2115,-0.113,-0.187,0.2275,0.428
-0.745,-0.704,0.04,0.7245,-0.392,-0.331,-0.9255,-0.9895,-1.1205,-0.6535,0.2125,-0.1115,-0.1885,0.227,0.425
-0.7415,-0.703,0.038,0.722,-0.3895,-0.3315,-0.9265,-0.99,-1.1225,-0.655,0.2125,-0.11,-0.1885,0.2305,0.426
-0.741,-0.7035,0.037,0.722,-0.389,-0.332,-0.9265,-0.991,-1.1225,-0.6565,0.212,-0.112,-0.189,0.2335,0.4255
-0.7405,-0.7095,0.0305,0.725,-0.3855,-0.3385,-0.926,-0.988,-1.1225,-0.6555,0.212,-0.113,-0.1895,0.2265,0.427
-0.746,-0.714,0.0315,0.73,-0.3885,-0.3405,-0.9245,-0.984,-1.1185,-0.6525,0.217,-0.108,-0.186,0.225,0.4265
-0.7455,-0.709,0.0365,0.7275,-0.391,-0.3355,-0.926,-0.9855,-1.118,-0.653,0.218,-0.107,-0.1855,0.2305,0.425
-0.7455,-0.707,0.038,0.726,-0.3915,-0.3335,-0.9275,-0.988,-1.1205,-0.654,0.2165,-0.108,-0.1845,0.233,0.426
-0.747,-0.7105,0.036,0.729,-0.3915,-0.3365,-0.925,-0.9855,-1.1195,-0.653,0.217,-0.108,-0.181,0.2305,0.427
-0.7405,-0.7115,0.0285,0.726,-0.384,-0.341,-0.924,-0.986,-1.12,-0.654,0.213,-0.112,-0.1875,0.2275,0.426
-0.7425,-0.7145,0.0275,0.7285,-0.385,-0.3425,-0.922,-0.985,-1.119,-0.654,0.213,-0.113,-0.192,0.234,0.424
-0.748,-0.7165,0.0315,0.7325,-0.3895,-0.3415,-0.9225,-0.983,-1.1185,-0.6525,0.214,-0.1095,-0.1895,0.234,0.4235
-0.745,-0.717,0.0275,0.731,-0.386,-0.344,-0.9245,-0.987,-1.123,-0.656,0.2115,-0.111,-0.191,0.2295,0.424
-0.7405,-0.717,0.023,0.729,-0.3815,-0.346,-0.9235,-0.988,-1.1245,-0.6615,0.2075,-0.113,-0.194,0.2275,0.427
-0.7435,-0.7205,0.0225,0.732,-0.383,-0.348,-0.9245,-0.9865,-1.1245,-0.662,0.206,-0.1135,-0.1955,0.221,0.4255
-0.7465,-0.725,0.021,0.7355,-0.384,-0.351,-0.925,-0.9865,-1.1235,-0.662,0.207,-0.1145,-0.1965,0.2215,0.424
-0.7485,-0.7255,0.0225,0.737,-0.3855,-0.3505,-0.923,-0.987,-1.122,-0.6615,0.2075,-0.1135,-0.195,0.2225,0.4255
-0.7495,-0.725,0.024,0.737,-0.3865,-0.35,-0.9225,-0.985,-1.121,-0.659,0.2085,-0.1105,-0.1915,0.224,0.4275
-0.745,-0.723,0.022,0.734,-0.3835,-0.35,-0.9245,-0.9875,-1.122,-0.66,0.2075,-0.112,-0.1925,0.23,0.429
-0.745,-0.7235,0.021,0.734,-0.3825,-0.3505,-0.9255,-0.991,-1.125,-0.6625,0.204,-0.117,-0.1985,0.2335,0.427
-0.748,-0.723,0.0245,0.7355,-0.386,-0.349,-0.926,-0.991,-1.1245,-0.6635,0.202,-0.1185,-0.1985,0.238,0.428
-0.749,-0.723,0.0255,0.736,-0.387,-0.348,-0.926,-0.9915,-1.124,-0.6615,0.203,-0.1165,-0.196,0.2385,0.427
-0.749,-0.7235,0.025,0.736,-0.3865,-0.3485,-0.924,-0.9895,-1.123,-0.661,0.204,-0.1145,-0.195,0.238,0.426
-0.746,-0.7205,0.025,0.733,-0.385,-0.347,-0.925,-0.9895,-1.1225,-0.663,0.2015,-0.1195,-0.197,0.2355,0.429
-0.7425,-0.72,0.022,0.731,-0.382,-0.3485,-0.923,-0.99,-1.1235,-0.664,0.2005,-0.1195,-0.1975,0.231,0.43
-0.745,-0.7255,0.0195,0.735,-0.382,-0.352,-0.922,-0.989,-1.1215,-0.6625,0.203,-0.1155,-0.194,0.2305,0.43
-0.744,-0.7285,0.015,0.7365,-0.3795,-0.356,-0.9215,-0.989,-1.12,-0.6615,0.2035,-0.1155,-0.1945,0.2305,0.4285
-0.7415,-0.729,0.012,0.735,-0.3765,-0.3575,-0.9205,-0.987,-1.1205,-0.6645,0.201,-0.1175,-0.196,0.231,0.4295
-0.7455,-0.7305,0.0145,0.738,-0.38,-0.357,-0.92,-0.9865,-1.121,-0.6655,0.198,-0.1185,-0.1955,0.226,0.431
-0.748,-0.731,0.017,0.7395,-0.382,-0.3565,-0.9185,-0.988,-1.1195,-0.6635,0.199,-0.116,-0.1945,0.2275,0.43
-0.7485,-0.73,0.0185,0.739,-0.3835,-0.355,-0.919,-0.9865,-1.1185,-0.6625,0.2005,-0.1165,-0.192,0.232,0.4295
-0.7475,-0.727,0.0195,0.737,-0.383,-0.353,-0.9185,-0.9875,-1.1185,-0.6615,0.202,-0.116,-0.19,0.231,0.4295
-0.749,-0.728,0.02,0.7385,-0.3845,-0.353,-0.9215,-0.9905,-1.118,-0.663,0.2025,-0.114,-0.188,0.23,0.4305
-0.748,-0.7305,0.017,0.739,-0.3825,-0.356,-0.9205,-0.9915,-1.1185,-0.665,0.203,-0.113,-0.189,0.224,0.431
-0.746,-0.7345,0.011,0.74,-0.3785,-0.361,-0.9185,-0.9885,-1.1185,-0.663,0.204,-0.111,-0.191,0.2215,0.429
-0.748,-0.734,0.0135,0.741,-0.3805,-0.3595,-0.9195,-0.985,-1.117,-0.6625,0.205,-0.1105,-0.193,0.2235,0.4265
-0.7505,-0.7325,0.0175,0.7415,-0.3835,-0.357,-0.92,-0.9845,-1.117,-0.6615,0.2055,-0.109,-0.193,0.232,0.424
-0.7595,-0.7385,0.0205,0.749,-0.3895,-0.3585,-0.923,-0.984,-1.116,-0.66,0.2065,-0.106,-0.1865,0.238,0.4265
-0.7575,-0.737,0.02,0.747,-0.3885,-0.3575,-0.921,-0.9845,-1.114,-0.66,0.2075,-0.106,-0.1895,0.2345,0.4265
-0.7485,-0.7385,0.0095,0.7435,-0.379,-0.3635,-0.9185,-0.986,-1.115,-0.662,0.2055,-0.1075,-0.195,0.2275,0.4245
-0.746,-0.7425,0.003,0.7445,-0.3745,-0.369,-0.921,-0.9875,-1.1155,-0.663,0.2015,-0.1115,-0.1975,0.219,0.4255
-0.743,-0.742,0.0005,0.7425,-0.371,-0.37,-0.9215,-0.988,-1.117,-0.6655,0.198,-0.116,-0.2035,0.217,0.4275
-0.744,-0.7425,0.0005,0.7435,-0.372,-0.3705,-0.922,-0.987,-1.1175,-0.666,0.1965,-0.1165,-0.205,0.218,0.427
-0.747,-0.745,0.0015,0.746,-0.374,-0.371,-0.9215,-0.9895,-1.117,-0.666,0.1945,-0.1185,-0.2065,0.2185,0.427
-0.747,-0.7455,0.001,0.7465,-0.374,-0.3715,-0.921,-0.9915,-1.1195,-0.6685,0.1925,-0.1215,-0.2075,0.2155,0.4285
-0.746,-0.742,0.004,0.744,-0.375,-0.368,-0.921,-0.991,-1.12,-0.6685,0.1915,-0.1235,-0.209,0.219,0.428
-0.748,-0.7435,0.004,0.7455,-0.3755,-0.369,-0.923,-0.9895,-1.1195,-0.668,0.1915,-0.124,-0.209,0.2195,0.428
-0.749,-0.7395,0.009,0.7445,-0.3785,-0.3645,-0.9235,-0.9885,-1.117,-0.665,0.1945,-0.1235,-0.207,0.2195,0.4275
-0.7445,-0.732,0.0125,0.7385,-0.3785,-0.359,-0.9205,-0.986,-1.1115,-0.661,0.1985,-0.119,-0.204,0.2215,0.426
-0.7445,-0.7325,0.0115,0.7385,-0.3775,-0.36,-0.9195,-0.984,-1.1105,-0.6625,0.199,-0.118,-0.2025,0.2205,0.426
-0.751,-0.7365,0.014,0.744,-0.382,-0.3605,-0.92,-0.9865,-1.113,-0.6655,0.1945,-0.1225,-0.2025,0.219,0.428
-0.7495,-0.738,0.011,0.744,-0.38,-0.363,-0.9195,-0.986,-1.1145,-0.6665,0.1915,-0.1235,-0.2035,0.2155,0.427
-0.749,-0.7375,0.0115,0.743,-0.38,-0.3625,-0.9205,-0.9845,-1.1145,-0.666,0.192,-0.1225,-0.2025,0.221,0.4275
-0.752,-0.739,0.0125,0.7455,-0.382,-0.3625,-0.9235,-0.987,-1.1155,-0.667,0.191,-0.122,-0.201,0.2255,0.4295
-0.748,-0.7385,0.009,0.743,-0.378,-0.364,-0.923,-0.9875,-1.1185,-0.6695,0.1905,-0.1225,-0.2035,0.2215,0.428
-0.7475,-0.739,0.008,0.7435,-0.3775,-0.365,-0.922,-0.986,-1.1175,-0.6675,0.192,-0.122,-0.2015,0.217,0.4275
-0.753,-0.7405,0.0115,0.7465,-0.382,-0.3635,-0.9215,-0.984,-1.1145,-0.665,0.194,-0.119,-0.1975,0.219,0.4275
-0.7535,-0.74,0.013,0.747,-0.383,-0.363,-0.922,-0.9865,-1.118,-0.6675,0.1915,-0.1215,-0.2005,0.22,0.4275
-0.7535,-0.7405,0.0125,0.747,-0.383,-0.363,-0.922,-0.9875,-1.1185,-0.6685,0.19,-0.1215,-0.2,0.2185,0.429
-0.7555,-0.738,0.017,0.7465,-0.386,-0.3595,-0.9205,-0.9865,-1.1165,-0.668,0.1925,-0.12,-0.1975,0.2215,0.4275
-0.7525,-0.736,0.0165,0.7445,-0.384,-0.359,-0.9215,-0.9875,-1.1195,-0.6695,0.19,-0.126,-0.202,0.2205,0.4265
-0.749,-0.734,0.015,0.7415,-0.3815,-0.3585,-0.92,-0.986,-1.1195,-0.6705,0.187,-0.1285,-0.2015,0.221,0.427
-0.7465,-0.7355,0.0105,0.741,-0.378,-0.362,-0.9195,-0.986,-1.12,-0.6715,0.1855,-0.131,-0.204,0.2175,0.425
-0.749,-0.7395,0.0095,0.7445,-0.379,-0.3645,-0.9215,-0.9855,-1.1195,-0.671,0.1845,-0.133,-0.2065,0.2135,0.4255
-0.749,-0.7355,0.0125,0.7425,-0.3805,-0.3605,-0.9215,-0.984,-1.118,-0.6695,0.1845,-0.1335,-0.206,0.2195,0.426
-0.749,-0.7345,0.0135,0.742,-0.381,-0.36,-0.921,-0.984,-1.119,-0.6705,0.1835,-0.136,-0.2065,0.225,0.4265
-0.749,-0.7355,0.013,0.7425,-0.3805,-0.3605,-0.9215,-0.983,-1.119,-0.672,0.184,-0.137,-0.207,0.223,0.426
-0.7475,-0.737,0.01,0.742,-0.3785,-0.3625,-0.9215,-0.9825,-1.119,-0.672,0.184,-0.138,-0.207,0.221,0.4265
-0.749,-0.737,0.0115,0.743,-0.38,-0.362,-0.92,-0.9825,-1.118,-0.6705,0.1865,-0.1355,-0.204,0.224,0.427
-0.7465,-0.734,0.012,0.74,-0.379,-0.36,-0.919,-0.9825,-1.1195,-0.67,0.1855,-0.135,-0.2045,0.2275,0.426
-0.7475,-0.734,0.0125,0.7405,-0.3795,-0.36,-0.918,-0.982,-1.12,-0.671,0.1845,-0.135,-0.205,0.2285,0.426
-0.7455,-0.7335,0.012,0.7395,-0.3785,-0.36,-0.918,-0.984,-1.121,-0.6735,0.1835,-0.1365,-0.208,0.224,0.4245
-0.749,-0.737,0.0115,0.743,-0.38,-0.362,-0.9195,-0.986,-1.123,-0.675,0.1815,-0.1375,-0.2075,0.2275,0.425
-0.754,-0.74,0.0135,0.747,-0.3835,-0.3625,-0.919,-0.985,-1.122,-0.675,0.184,-0.136,-0.207,0.231,0.4245
-0.747,-0.736,0.0105,0.7415,-0.3785,-0.362,-0.919,-0.9865,-1.123,-0.6765,0.1825,-0.139,-0.2115,0.2275,0.4255
-0.7435,-0.735,0.008,0.7395,-0.376,-0.3625,-0.9185,-0.987,-1.1215,-0.676,0.181,-0.14,-0.2125,0.2275,0.426
-0.744,-0.7365,0.0075,0.7405,-0.3755,-0.364,-0.9185,-0.986,-1.122,-0.675,0.1815,-0.14,-0.2115,0.225,0.4255
-0.7505,-0.741,0.009,0.7455,-0.3795,-0.365,-0.919,-0.9855,-1.123,-0.676,0.1825,-0.1395,-0.212,0.2255,0.4265
-0.756,-0.7425,0.013,0.749,-0.384,-0.364,-0.92,-0.9855,-1.1225,-0.6755,0.181,-0.14,-0.213,0.23,0.426
-0.753,-0.74,0.0125,0.7465,-0.3825,-0.363,-0.9185,-0.9855,-1.1235,-0.6775,0.179,-0.143,-0.2155,0.229,0.425
-0.748,-0.7385,0.009,0.743,-0.3785,-0.364,-0.92,-0.988,-1.1245,-0.6795,0.1785,-0.143,-0.2175,0.226,0.423
-0.743,-0.738,0.005,0.7405,-0.374,-0.3655,-0.92,-0.989,-1.126,-0.68,0.1765,-0.1445,-0.2205,0.2215,0.421
-0.744,-0.7385,0.005,0.741,-0.374,-0.366,-0.9185,-0.9865,-1.125,-0.68,0.175,-0.148,-0.223,0.2165,0.4205
-0.7465,-0.74,0.006,0.7435,-0.376,-0.366,-0.92,-0.986,-1.124,-0.6795,0.1775,-0.146,-0.221,0.214,0.4195
-0.751,-0.7435,0.007,0.747,-0.379,-0.367,-0.9195,-0.985,-1.123,-0.6785,0.1785,-0.1445,-0.2155,0.215,0.4225
-0.751,-0.7425,0.008,0.7465,-0.379,-0.3665,-0.9175,-0.9825,-1.122,-0.676,0.1765,-0.148,-0.2185,0.213,0.42
-0.7425,-0.737,0.0055,0.74,-0.3735,-0.365,-0.914,-0.9825,-1.122,-0.6765,0.1755,-0.149,-0.223,0.2125,0.418
-0.7445,-0.7355,0.009,0.74,-0.3765,-0.3625,-0.9125,-0.983,-1.1215,-0.68,0.176,-0.147,-0.2205,0.2235,0.4185
-0.7495,-0.7365,0.0125,0.743,-0.381,-0.3615,-0.9125,-0.983,-1.121,-0.6805,0.176,-0.146,-0.219,0.227,0.418
-0.7445,-0.731,0.013,0.738,-0.3785,-0.358,-0.9125,-0.981,-1.12,-0.6805,0.175,-0.148,-0.219,0.227,0.4195
-0.746,-0.7255,0.0195,0.736,-0.3825,-0.352,-0.91,-0.9765,-1.116,-0.675,0.1785,-0.147,-0.217,0.2265,0.4155
-0.749,-0.718,0.0305,0.7335,-0.3895,-0.343,-0.907,-0.974,-1.1115,-0.668,0.183,-0.143,-0.214,0.236,0.4125
-0.7475,-0.7095,0.0375,0.7285,-0.392,-0.3355,-0.9075,-0.9735,-1.11,-0.6655,0.183,-0.1435,-0.216,0.2535,0.4095
-0.7495,-0.7065,0.0425,0.728,-0.3955,-0.331,-0.9035,-0.9695,-1.1075,-0.6635,0.181,-0.147,-0.2195,0.254,0.406
-0.747,-0.7015,0.0455,0.7245,-0.396,-0.3275,-0.902,-0.9705,-1.108,-0.6645,0.178,-0.15,-0.2215,0.254,0.403
-0.745,-0.698,0.0465,0.7215,-0.3955,-0.325,-0.909,-0.9755,-1.1105,-0.6675,0.176,-0.1505,-0.223,0.256,0.403
-0.7435,-0.69,0.053,0.7165,-0.398,-0.3175,-0.912,-0.977,-1.11,-0.665,0.177,-0.1495,-0.2235,0.2625,0.405
-0.7475,-0.683,0.064,0.7155,-0.4055,-0.309,-0.912,-0.9755,-1.106,-0.66,0.181,-0.1455,-0.221,0.27,0.4035
-0.752,-0.6765,0.075,0.7145,-0.413,-0.3,-0.9125,-0.975,-1.1035,-0.6585,0.183,-0.142,-0.22,0.277,0.3995
-0.7515,-0.668,0.083,0.71,-0.417,-0.2915,-0.912,-0.9745,-1.103,-0.657,0.186,-0.1415,-0.2205,0.2865,0.397
-0.7545,-0.663,0.091,0.7085,-0.4225,-0.285,-0.9105,-0.9725,-1.1,-0.654,0.187,-0.141,-0.2185,0.289,0.393
-0.7555,-0.658,0.097,0.707,-0.426,-0.28,-0.9085,-0.969,-1.0965,-0.65,0.1895,-0.1395,-0.216,0.292,0.3895
-0.7575,-0.659,0.098,0.708,-0.4275,-0.2795,-0.9055,-0.965,-1.0925,-0.648,0.191,-0.138,-0.213,0.2935,0.39
-0.7545,-0.656,0.098,0.7055,-0.426,-0.2785,-0.9035,-0.9635,-1.0905,-0.648,0.1895,-0.138,-0.2135,0.2955,0.3895
-0.7565,-0.6535,0.1025,0.705,-0.429,-0.2745,-0.901,-0.961,-1.088,-0.645,0.1935,-0.136,-0.2135,0.3005,0.3855
-0.7605,-0.652,0.108,0.706,-0.434,-0.271,-0.8985,-0.9585,-1.084,-0.6425,0.197,-0.1315,-0.2105,0.301,0.3835
-0.7585,-0.647,0.111,0.703,-0.4345,-0.2675,-0.899,-0.959,-1.0845,-0.643,0.1985,-0.129,-0.2095,0.299,0.3805
-0.761,-0.6465,0.114,0.704,-0.437,-0.2655,-0.898,-0.959,-1.0845,-0.644,0.197,-0.128,-0.2105,0.3035,0.3765
-0.7635,-0.65,0.113,0.7065,-0.438,-0.2675,-0.897,-0.956,-1.083,-0.645,0.194,-0.1275,-0.21,0.3035,0.3745
-0.7665,-0.6535,0.1125,0.71,-0.4395,-0.2695,-0.895,-0.9515,-1.079,-0.6415,0.196,-0.127,-0.206,0.3,0.372
-0.7675,-0.655,0.1125,0.711,-0.4395,-0.2705,-0.8925,-0.9475,-1.074,-0.637,0.1985,-0.1255,-0.2015,0.2985,0.37
-0.7645,-0.6575,0.1065,0.711,-0.435,-0.275,-0.894,-0.947,-1.0735,-0.637,0.2,-0.1245,-0.2,0.292,0.3705
-0.767,-0.6625,0.1045,0.715,-0.4355,-0.2785,-0.893,-0.944,-1.071,-0.6345,0.2025,-0.1215,-0.1955,0.2915,0.37
-0.7735,-0.6635,0.109,0.7185,-0.441,-0.2765,-0.892,-0.9385,-1.066,-0.6315,0.2055,-0.1175,-0.189,0.2925,0.3715
-0.783,-0.6665,0.116,0.725,-0.449,-0.2745,-0.891,-0.9325,-1.0595,-0.6255,0.212,-0.1115,-0.181,0.294,0.3705
-0.781,-0.6625,0.118,0.7215,-0.4495,-0.2715,-0.8895,-0.931,-1.057,-0.6225,0.213,-0.11,-0.1775,0.301,0.3735
-0.7755,-0.6545,0.1205,0.715,-0.4475,-0.2665,-0.8905,-0.932,-1.057,-0.6225,0.214,-0.1095,-0.1725,0.3045,0.3795
-0.782,-0.66,0.1215,0.721,-0.4515,-0.2685,-0.8955,-0.931,-1.054,-0.6185,0.218,-0.1035,-0.164,0.3015,0.378
-0.782,-0.655,0.126,0.7185,-0.4535,-0.264,-0.8985,-0.935,-1.0555,-0.621,0.217,-0.1035,-0.1645,0.301,0.3765
-0.783,-0.651,0.1315,0.717,-0.457,-0.259,-0.899,-0.9345,-1.054,-0.6215,0.214,-0.106,-0.167,0.3015,0.3765
-0.7885,-0.653,0.135,0.7205,-0.4615,-0.2585,-0.898,-0.931,-1.051,-0.6175,0.2145,-0.1035,-0.163,0.3045,0.3745
-0.7895,-0.646,0.1425,0.7175,-0.466,-0.2515,-0.896,-0.9285,-1.0475,-0.6155,0.219,-0.1,-0.1605,0.312,0.3695
-0.787,-0.64,0.1465,0.7135,-0.4665,-0.2465,-0.9,-0.9325,-1.049,-0.6175,0.2185,-0.0995,-0.162,0.3185,0.37
-0.79,-0.642,0.1475,0.716,-0.4685,-0.247,-0.9095,-0.9395,-1.0555,-0.6225,0.2165,-0.099,-0.1615,0.3215,0.3765
-0.791,-0.649,0.1415,0.72,-0.466,-0.2535,-0.9185,-0.9455,-1.0605,-0.6245,0.2145,-0.0985,-0.159,0.3175,0.382
-0.793,-0.6525,0.1405,0.7225,-0.4665,-0.256,-0.9255,-0.952,-1.0645,-0.6265,0.214,-0.098,-0.1555,0.314,0.3865
-0.7935,-0.6535,0.14,0.7235,-0.4665,-0.256,-0.9285,-0.953,-1.0655,-0.627,0.214,-0.0965,-0.1535,0.31,0.389
-0.795,-0.6555,0.139,0.7255,-0.467,-0.2575,-0.933,-0.9565,-1.068,-0.6295,0.215,-0.0955,-0.152,0.3115,0.392
-0.7985,-0.658,0.14,0.7285,-0.469,-0.2585,-0.9375,-0.9635,-1.073,-0.633,0.2135,-0.096,-0.152,0.312,0.397
-0.7865,-0.6585,0.1275,0.7225,-0.4565,-0.265,-0.943,-0.972,-1.083,-0.6415,0.205,-0.102,-0.159,0.301,0.4045
-0.7845,-0.6665,0.1175,0.7255,-0.4505,-0.2735,-0.952,-0.983,-1.0915,-0.648,0.202,-0.102,-0.1605,0.288,0.4155
-0.7905,-0.678,0.1115,0.734,-0.4505,-0.2825,-0.957,-0.987,-1.0955,-0.6495,0.2045,-0.0995,-0.157,0.2805,0.4235
-0.786,-0.681,0.1045,0.7335,-0.445,-0.2875,-0.963,-0.9925,-1.103,-0.6545,0.201,-0.1025,-0.1595,0.2775,0.431
-0.7865,-0.683,0.1035,0.7345,-0.4445,-0.289,-0.9725,-0.9985,-1.108,-0.6585,0.1985,-0.1025,-0.1585,0.275,0.4405
-0.795,-0.686,0.1085,0.7405,-0.4515,-0.288,-0.978,-0.999,-1.105,-0.656,0.204,-0.098,-0.151,0.274,0.4435
-0.8025,-0.6885,0.1135,0.7455,-0.458,-0.287,-0.9815,-0.9965,-1.1,-0.649,0.212,-0.091,-0.139,0.2755,0.445
-0.807,-0.69,0.117,0.7485,-0.462,-0.2855,-0.9835,-0.9955,-1.097,-0.645,0.218,-0.085,-0.13,0.2775,0.449
-0.812,-0.6925,0.1195,0.7525,-0.4655,-0.286,-0.9855,-0.996,-1.0965,-0.6425,0.2215,-0.0815,-0.125,0.2725,0.4515
-0.8155,-0.6995,0.1155,0.7575,-0.4655,-0.291,-0.988,-0.994,-1.0955,-0.6405,0.224,-0.078,-0.12,0.267,0.455
-0.816,-0.705,0.1105,0.7605,-0.463,-0.2965,-0.991,-0.9935,-1.095,-0.6405,0.227,-0.076,-0.1155,0.264,0.458
-0.8215,-0.7085,0.112,0.765,-0.4665,-0.2975,-0.9915,-0.9905,-1.091,-0.6345,0.233,-0.071,-0.107,0.2645,0.4605
-0.8325,-0.7105,0.1215,0.7715,-0.477,-0.2935,-0.994,-0.9865,-1.0855,-0.6265,0.239,-0.064,-0.0965,0.266,0.4625
-0.839,-0.7145,0.124,0.7765,-0.4815,-0.2945,-0.9965,-0.986,-1.084,-0.625,0.242,-0.0605,-0.0895,0.2635,0.463
-0.8395,-0.7165,0.1225,0.778,-0.4805,-0.2965,-0.994,-0.9815,-1.0795,-0.6205,0.2485,-0.057,-0.087,0.264,0.4615
-0.852,-0.7165,0.135,0.7845,-0.4935,-0.29,-0.997,-0.979,-1.077,-0.6145,0.2555,-0.0495,-0.078,0.2675,0.464
-0.8635,-0.721,0.1425,0.792,-0.503,-0.2885,-1.0025,-0.979,-1.075,-0.613,0.261,-0.043,-0.0705,0.2715,0.4665
-0.8695,-0.7325,0.1365,0.801,-0.503,-0.2975,-1.0055,-0.979,-1.074,-0.61,0.2655,-0.039,-0.066,0.262,0.4695
-0.8755,-0.745,0.13,0.81,-0.5025,-0.3065,-1.0115,-0.981,-1.0765,-0.6085,0.2695,-0.0325,-0.0575,0.2515,0.4765
-0.874,-0.7525,0.121,0.8135,-0.4975,-0.315,-1.0135,-0.9845,-1.0805,-0.6135,0.266,-0.0365,-0.064,0.2455,0.4795
-0.871,-0.759,0.1115,0.815,-0.491,-0.323,-1.018,-0.992,-1.0895,-0.621,0.259,-0.045,-0.0735,0.241,0.4845
-0.866,-0.762,0.1035,0.8135,-0.4845,-0.328,-1.02,-0.996,-1.0935,-0.625,0.26,-0.0425,-0.075,0.24,0.4865
-0.8645,-0.7615,0.103,0.813,-0.4835,-0.3285,-1.017,-0.997,-1.096,-0.626,0.2585,-0.041,-0.0775,0.243,0.483
-0.8675,-0.7565,0.1105,0.812,-0.489,-0.322,-1.014,-0.994,-1.093,-0.6225,0.263,-0.0385,-0.0745,0.245,0.4765
-0.8735,-0.759,0.114,0.8165,-0.4935,-0.322,-1.014,-0.9935,-1.0905,-0.618,0.268,-0.0335,-0.068,0.24,0.476
-0.875,-0.7585,0.116,0.8165,-0.495,-0.3205,-1.012,-0.994,-1.0885,-0.617,0.2705,-0.0295,-0.066,0.2435,0.474
-0.871,-0.752,0.1185,0.8115,-0.4945,-0.316,-1.012,-0.996,-1.089,-0.6165,0.274,-0.0285,-0.0675,0.247,0.4695
-0.877,-0.7585,0.118,0.8175,-0.4975,-0.3195,-1.0135,-0.998,-1.091,-0.6145,0.276,-0.0265,-0.064,0.2445,0.469
-0.8795,-0.7575,0.1215,0.8185,-0.5005,-0.317,-1.008,-0.992,-1.084,-0.6065,0.284,-0.0225,-0.061,0.2475,0.46
-0.8745,-0.7455,0.1285,0.81,-0.5015,-0.3075,-1.0045,-0.9885,-1.08,-0.6015,0.287,-0.0195,-0.061,0.261,0.452
-0.8695,-0.7365,0.132,0.803,-0.5005,-0.3015,-0.9955,-0.9835,-1.076,-0.6,0.288,-0.018,-0.0625,0.2685,0.446
-0.863,-0.732,0.1305,0.797,-0.4965,-0.3,-0.99,-0.983,-1.0775,-0.6025,0.286,-0.0195,-0.068,0.2735,0.44
-0.8595,-0.7305,0.1285,0.795,-0.494,-0.3,-0.989,-0.985,-1.0785,-0.604,0.2835,-0.0205,-0.071,0.2775,0.4395
-0.859,-0.7345,0.1245,0.797,-0.4915,-0.304,-0.9845,-0.9845,-1.078,-0.6045,0.2825,-0.023,-0.075,0.276,0.438
-0.857,-0.7365,0.1205,0.797,-0.4885,-0.307,-0.9825,-0.9875,-1.085,-0.6115,0.277,-0.026,-0.082,0.2775,0.4385
-0.8525,-0.731,0.121,0.792,-0.4865,-0.304,-0.982,-0.9925,-1.0895,-0.617,0.272,-0.0285,-0.087,0.277,0.4435
-0.8485,-0.729,0.119,0.789,-0.4835,-0.304,-0.9825,-0.9965,-1.093,-0.619,0.27,-0.0285,-0.09,0.2775,0.445
-0.8465,-0.7285,0.118,0.7875,-0.482,-0.3045,-0.9855,-1.0,-1.0975,-0.6235,0.2665,-0.029,-0.093,0.2785,0.447
-0.843,-0.7275,0.115,0.7855,-0.4785,-0.3055,-0.9865,-1.0015,-1.1,-0.628,0.2625,-0.0325,-0.097,0.2785,0.448
-0.837,-0.731,0.106,0.784,-0.471,-0.312,-0.985,-1.003,-1.102,-0.6305,0.2605,-0.034,-0.0995,0.273,0.4485
-0.8325,-0.7355,0.096,0.784,-0.464,-0.319,-0.984,-1.0085,-1.108,-0.638,0.2545,-0.0395,-0.103,0.2675,0.4555
-0.8295,-0.7365,0.093,0.783,-0.461,-0.321,-0.983,-1.011,-1.113,-0.645,0.2455,-0.0465,-0.111,0.268,0.458
-0.826,-0.7325,0.093,0.779,-0.459,-0.319,-0.9835,-1.014,-1.1155,-0.649,0.244,-0.047,-0.113,0.268,0.46
-0.8165,-0.733,0.0825,0.7745,-0.449,-0.3245,-0.981,-1.0135,-1.118,-0.652,0.241,-0.0515,-0.1175,0.2595,0.4595
-0.807,-0.7365,0.0705,0.7715,-0.4385,-0.3325,-0.9805,-1.0165,-1.1225,-0.6595,0.23,-0.0625,-0.127,0.25,0.4615
-0.81,-0.742,0.0675,0.776,-0.4385,-0.3365,-0.9815,-1.0215,-1.128,-0.668,0.222,-0.0675,-0.1315,0.2465,0.4675
-0.803,-0.743,0.0595,0.773,-0.431,-0.341,-0.98,-1.027,-1.1375,-0.6805,0.208,-0.0775,-0.143,0.2405,0.4725
-0.7865,-0.739,0.047,0.7625,-0.4165,-0.345,-0.9785,-1.0325,-1.1475,-0.6935,0.191,-0.0935,-0.159,0.2355,0.4745
-0.77,-0.73,0.0395,0.75,-0.4045,-0.3445,-0.9725,-1.038,-1.1555,-0.706,0.1765,-0.108,-0.1745,0.232,0.477
-0.7525,-0.72,0.032,0.7365,-0.392,-0.3435,-0.967,-1.0425,-1.1635,-0.7165,0.1625,-0.1215,-0.19,0.23,0.4765
-0.7435,-0.7195,0.023,0.7315,-0.383,-0.3475,-0.9585,-1.04,-1.164,-0.719,0.1555,-0.131,-0.199,0.2275,0.4725
-0.736,-0.7165,0.019,0.726,-0.377,-0.348,-0.9505,-1.036,-1.1615,-0.7185,0.1535,-0.1355,-0.2065,0.225,0.468
-0.734,-0.7175,0.016,0.726,-0.3745,-0.35,-0.947,-1.0335,-1.161,-0.7185,0.152,-0.1375,-0.212,0.2285,0.4625
-0.727,-0.721,0.0055,0.724,-0.366,-0.357,-0.9435,-1.0335,-1.1625,-0.722,0.1465,-0.143,-0.2155,0.2235,0.463
-0.7185,-0.724,-0.006,0.721,-0.356,-0.364,-0.941,-1.034,-1.1655,-0.7265,0.139,-0.1485,-0.2195,0.212,0.4635
-0.7175,-0.729,-0.012,0.723,-0.3525,-0.37,-0.938,-1.0335,-1.166,-0.7295,0.134,-0.1555,-0.2255,0.2045,0.4625
-0.7175,-0.729,-0.0125,0.7235,-0.3525,-0.37,-0.936,-1.033,-1.165,-0.7305,0.1325,-0.1585,-0.229,0.202,0.4635
-0.717,-0.734,-0.017,0.7255,-0.35,-0.375,-0.9345,-1.032,-1.1655,-0.7315,0.1305,-0.1595,-0.231,0.1995,0.463
-0.718,-0.739,-0.0215,0.7285,-0.348,-0.3795,-0.9345,-1.0325,-1.1675,-0.7345,0.1285,-0.162,-0.236,0.199,0.4625
-0.716,-0.7375,-0.022,0.7265,-0.3465,-0.379,-0.935,-1.0325,-1.168,-0.733,0.1295,-0.162,-0.2365,0.2,0.46
-0.7135,-0.7365,-0.0235,0.725,-0.3445,-0.3795,-0.934,-1.031,-1.1645,-0.7305,0.1305,-0.1625,-0.2375,0.2,0.4585
-0.7155,-0.7395,-0.0245,0.7275,-0.3455,-0.381,-0.935,-1.03,-1.1635,-0.73,0.133,-0.161,-0.237,0.201,0.459
-0.7155,-0.743,-0.0275,0.7295,-0.344,-0.3845,-0.9355,-1.03,-1.1645,-0.7295,0.134,-0.158,-0.238,0.1985,0.4585
-0.7125,-0.744,-0.0315,0.7285,-0.3405,-0.387,-0.935,-1.032,-1.1665,-0.732,0.13,-0.1605,-0.243,0.196,0.4575
-0.7085,-0.7425,-0.035,0.7255,-0.3365,-0.388,-0.9335,-1.033,-1.1695,-0.736,0.1275,-0.163,-0.247,0.1935,0.459
-0.706,-0.739,-0.033,0.7225,-0.336,-0.3855,-0.9345,-1.0345,-1.1715,-0.7395,0.126,-0.163,-0.251,0.1955,0.4605
-0.7035,-0.7375,-0.0345,0.7205,-0.3345,-0.385,-0.9345,-1.0345,-1.1715,-0.738,0.127,-0.162,-0.251,0.1955,0.4585
-0.703,-0.7385,-0.036,0.721,-0.3335,-0.3865,-0.931,-1.0305,-1.1665,-0.732,0.1335,-0.1575,-0.2465,0.195,0.457
-0.706,-0.74,-0.0345,0.7225,-0.3355,-0.3865,-0.9265,-1.029,-1.163,-0.7275,0.1375,-0.155,-0.2445,0.196,0.4545
-0.7075,-0.742,-0.0345,0.725,-0.336,-0.3875,-0.9265,-1.0305,-1.165,-0.729,0.1355,-0.1575,-0.2455,0.198,0.4525
-0.707,-0.74,-0.0335,0.7235,-0.3365,-0.386,-0.926,-1.0325,-1.167,-0.732,0.134,-0.1585,-0.247,0.1995,0.4535
-0.706,-0.738,-0.0325,0.722,-0.3365,-0.3845,-0.929,-1.033,-1.167,-0.73,0.135,-0.1585,-0.244,0.1935,0.453
-0.7045,-0.737,-0.0325,0.721,-0.336,-0.384,-0.9295,-1.03,-1.1635,-0.728,0.137,-0.157,-0.241,0.1995,0.4505
-0.71,-0.739,-0.03,0.7245,-0.34,-0.3835,-0.928,-1.0265,-1.16,-0.726,0.1375,-0.1565,-0.2395,0.1985,0.4495
-0.7065,-0.738,-0.032,0.722,-0.337,-0.384,-0.93,-1.027,-1.1605,-0.7285,0.1335,-0.162,-0.241,0.1925,0.4505
-0.7045,-0.737,-0.033,0.7205,-0.3355,-0.3845,-0.9275,-1.028,-1.162,-0.7295,0.1325,-0.163,-0.243,0.195,0.449
-0.7095,-0.7365,-0.0275,0.723,-0.341,-0.381,-0.9305,-1.0285,-1.1615,-0.728,0.134,-0.1605,-0.2415,0.198,0.448
-0.703,-0.7315,-0.029,0.717,-0.3365,-0.3795,-0.9305,-1.0305,-1.163,-0.7315,0.13,-0.1635,-0.2445,0.2075,0.4485
-0.707,-0.734,-0.0275,0.7205,-0.3395,-0.38,-0.929,-1.0295,-1.1645,-0.732,0.131,-0.1625,-0.24,0.209,0.4495
-0.7135,-0.736,-0.023,0.7245,-0.345,-0.3785,-0.9305,-1.0285,-1.162,-0.728,0.135,-0.158,-0.2335,0.205,0.4485
-0.7175,-0.736,-0.019,0.7265,-0.3485,-0.377,-0.9285,-1.0265,-1.1595,-0.7255,0.1335,-0.159,-0.2325,0.2045,0.4495
-0.7185,-0.734,-0.016,0.726,-0.351,-0.374,-0.929,-1.0255,-1.16,-0.726,0.132,-0.162,-0.2365,0.208,0.451
-0.716,-0.7315,-0.016,0.724,-0.3495,-0.3735,-0.9285,-1.025,-1.1595,-0.725,0.132,-0.161,-0.237,0.213,0.4505
-0.72,-0.7345,-0.015,0.727,-0.352,-0.374,-0.928,-1.022,-1.158,-0.723,0.1345,-0.1575,-0.2335,0.21,0.451
-0.7225,-0.738,-0.016,0.73,-0.353,-0.376,-0.93,-1.0235,-1.1595,-0.7255,0.1335,-0.16,-0.237,0.207,0.449
-0.7225,-0.74,-0.0175,0.7315,-0.352,-0.378,-0.9305,-1.025,-1.159,-0.7265,0.132,-0.16,-0.234,0.2095,0.451
-0.7215,-0.7415,-0.0205,0.7315,-0.3505,-0.38,-0.929,-1.025,-1.159,-0.7265,0.132,-0.161,-0.2355,0.2095,0.4515
-0.7245,-0.745,-0.0215,0.735,-0.3515,-0.3825,-0.9285,-1.023,-1.16,-0.726,0.132,-0.16,-0.2385,0.2065,0.4485
-0.718,-0.744,-0.0265,0.731,-0.3455,-0.3845,-0.929,-1.024,-1.1605,-0.727,0.1305,-0.1615,-0.243,0.2015,0.4495
-0.713,-0.744,-0.0315,0.7285,-0.3405,-0.387,-0.929,-1.0255,-1.1625,-0.7295,0.129,-0.1645,-0.2465,0.1975,0.4485
-0.719,-0.747,-0.0285,0.733,-0.345,-0.387,-0.9265,-1.023,-1.16,-0.7285,0.131,-0.162,-0.2435,0.2015,0.4465
-0.7165,-0.7455,-0.0295,0.731,-0.343,-0.387,-0.9265,-1.0245,-1.1595,-0.727,0.1315,-0.1615,-0.245,0.2025,0.4465
-0.7145,-0.7455,-0.0315,0.73,-0.341,-0.3875,-0.929,-1.0255,-1.16,-0.7275,0.131,-0.161,-0.245,0.1965,0.448
-0.7175,-0.7465,-0.0295,0.732,-0.3435,-0.3875,-0.931,-1.027,-1.162,-0.7285,0.1295,-0.1625,-0.2455,0.1935,0.4495
-0.7185,-0.745,-0.027,0.732,-0.3455,-0.3855,-0.9315,-1.029,-1.163,-0.7285,0.1315,-0.1625,-0.2445,0.1975,0.4485
-0.717,-0.743,-0.027,0.73,-0.3445,-0.3845,-0.929,-1.028,-1.162,-0.7285,0.1295,-0.164,-0.245,0.2015,0.4445
-0.715,-0.744,-0.0295,0.7295,-0.3425,-0.386,-0.9285,-1.0275,-1.162,-0.728,0.1285,-0.1655,-0.246,0.2005,0.446
-0.715,-0.7455,-0.0305,0.7305,-0.342,-0.387,-0.9285,-1.0275,-1.161,-0.727,0.13,-0.164,-0.2455,0.203,0.447
-0.718,-0.746,-0.0285,0.732,-0.3445,-0.3865,-0.9295,-1.027,-1.1605,-0.7255,0.1295,-0.164,-0.244,0.2105,0.446
-0.7215,-0.7495,-0.028,0.7355,-0.3465,-0.388,-0.9315,-1.0275,-1.161,-0.726,0.1285,-0.164,-0.243,0.2045,0.446
-0.723,-0.7505,-0.028,0.737,-0.3475,-0.3885,-0.9305,-1.0255,-1.1605,-0.725,0.1305,-0.162,-0.2415,0.1975,0.445
-0.725,-0.7495,-0.025,0.7375,-0.35,-0.3865,-0.929,-1.024,-1.1585,-0.724,0.135,-0.1575,-0.239,0.1985,0.4445
-0.7275,-0.7505,-0.0235,0.739,-0.3515,-0.386,-0.93,-1.026,-1.1585,-0.7275,0.134,-0.1575,-0.239,0.1975,0.446
-0.7275,-0.752,-0.025,0.74,-0.351,-0.3875,-0.9295,-1.028,-1.1605,-0.7285,0.133,-0.1595,-0.2405,0.201,0.4465
-0.7285,-0.753,-0.025,0.741,-0.3515,-0.3885,-0.9305,-1.029,-1.161,-0.7275,0.133,-0.1585,-0.238,0.2025,0.446
-0.7285,-0.7525,-0.0245,0.7405,-0.352,-0.3875,-0.93,-1.028,-1.1605,-0.7265,0.1355,-0.158,-0.2375,0.2055,0.4455
-0.729,-0.7525,-0.0235,0.7405,-0.3525,-0.387,-0.93,-1.0285,-1.159,-0.7225,0.137,-0.1575,-0.237,0.2055,0.444
-0.733,-0.7555,-0.0235,0.7445,-0.3545,-0.389,-0.9305,-1.029,-1.1585,-0.722,0.138,-0.1565,-0.235,0.1995,0.444
-0.7285,-0.754,-0.0265,0.7415,-0.3505,-0.3895,-0.93,-1.0285,-1.161,-0.722,0.137,-0.1585,-0.238,0.201,0.442
-0.7265,-0.7505,-0.0245,0.7385,-0.351,-0.3865,-0.9305,-1.0305,-1.162,-0.7225,0.1345,-0.1585,-0.239,0.202,0.4405
-0.73,-0.7515,-0.022,0.741,-0.3535,-0.3865,-0.9315,-1.031,-1.1635,-0.723,0.135,-0.1575,-0.238,0.2075,0.4425
-0.7305,-0.752,-0.0215,0.741,-0.354,-0.386,-0.9315,-1.029,-1.163,-0.721,0.134,-0.1585,-0.2375,0.206,0.445
-0.7305,-0.751,-0.021,0.741,-0.3545,-0.385,-0.927,-1.0255,-1.16,-0.7205,0.1355,-0.1585,-0.2355,0.2005,0.443
-0.7285,-0.7495,-0.0215,0.739,-0.353,-0.385,-0.9255,-1.0245,-1.159,-0.72,0.1345,-0.157,-0.2335,0.203,0.441
-0.728,-0.7485,-0.021,0.7385,-0.3535,-0.384,-0.9245,-1.0225,-1.1575,-0.72,0.134,-0.158,-0.2355,0.204,0.4405
-0.7275,-0.747,-0.02,0.7375,-0.3535,-0.383,-0.922,-1.0195,-1.1565,-0.7185,0.1345,-0.16,-0.2375,0.209,0.4385
-0.724,-0.745,-0.022,0.7345,-0.351,-0.383,-0.924,-1.0195,-1.1575,-0.7185,0.132,-0.162,-0.2365,0.2065,0.4375
-0.7245,-0.7425,-0.0185,0.7335,-0.3525,-0.3795,-0.9265,-1.0215,-1.157,-0.72,0.1305,-0.1645,-0.238,0.2055,0.437
-0.7255,-0.736,-0.0105,0.731,-0.357,-0.3725,-0.925,-1.021,-1.157,-0.721,0.1285,-0.165,-0.24,0.2115,0.4365
-0.7225,-0.7255,-0.0035,0.724,-0.3595,-0.3635,-0.921,-1.019,-1.156,-0.722,0.1265,-0.1665,-0.243,0.219,0.4335
-0.7185,-0.713,0.0045,0.716,-0.3615,-0.3535,-0.922,-1.0245,-1.1615,-0.726,0.124,-0.169,-0.2465,0.227,0.431
-0.715,-0.7025,0.012,0.709,-0.363,-0.3445,-0.925,-1.0335,-1.168,-0.729,0.122,-0.168,-0.2485,0.23,0.4295
-0.7115,-0.688,0.0235,0.7,-0.3675,-0.3315,-0.9265,-1.042,-1.1745,-0.733,0.1185,-0.17,-0.2525,0.244,0.428
-0.7075,-0.669,0.0375,0.6885,-0.3725,-0.315,-0.9315,-1.0565,-1.1885,-0.744,0.11,-0.174,-0.2565,0.261,0.427
-0.706,-0.642,0.0635,0.674,-0.3845,-0.2885,-0.938,-1.068,-1.196,-0.752,0.102,-0.175,-0.2605,0.2785,0.4235
-0.699,-0.6095,0.089,0.654,-0.394,-0.2595,-0.9425,-1.079,-1.204,-0.761,0.093,-0.1785,-0.2675,0.2995,0.4195
-0.688,-0.578,0.1095,0.633,-0.3985,-0.2345,-0.946,-1.089,-1.212,-0.768,0.0845,-0.185,-0.275,0.318,0.4145
-0.6825,-0.543,0.139,0.6125,-0.4105,-0.2015,-0.949,-1.0965,-1.2205,-0.776,0.075,-0.1875,-0.2815,0.3445,0.4075
-0.675,-0.5025,0.172,0.589,-0.423,-0.165,-0.9565,-1.116,-1.238,-0.792,0.061,-0.1915,-0.2885,0.3735,0.403
-0.6755,-0.465,0.2105,0.57,-0.443,-0.127,-0.977,-1.154,-1.2655,-0.808,0.061,-0.1855,-0.2845,0.404,0.4095
-0.683,-0.4315,0.251,0.5575,-0.4665,-0.09,-1.003,-1.196,-1.298,-0.821,0.069,-0.17,-0.273,0.4365,0.4185
-0.6835,-0.406,0.2765,0.545,-0.48,-0.0645,-1.0245,-1.229,-1.324,-0.829,0.079,-0.156,-0.263,0.4615,0.4265
-0.6825,-0.3885,0.294,0.5355,-0.488,-0.047,-1.039,-1.246,-1.3335,-0.826,0.0945,-0.143,-0.2525,0.4805,0.43
-0.688,-0.3795,0.3085,0.534,-0.498,-0.0355,-1.053,-1.2585,-1.3385,-0.819,0.112,-0.1265,-0.2385,0.4905,0.4305
-0.695,-0.3655,0.329,0.53,-0.512,-0.018,-1.0675,-1.2685,-1.341,-0.816,0.1195,-0.1145,-0.2285,0.506,0.4305
-0.6975,-0.337,0.36,0.517,-0.5285,0.012,-1.076,-1.2735,-1.3345,-0.8005,0.13,-0.106,-0.2195,0.533,0.4215
-0.7105,-0.328,0.3815,0.5195,-0.546,0.027,-1.092,-1.285,-1.3295,-0.7725,0.162,-0.0825,-0.1955,0.5415,0.422
-0.728,-0.3255,0.4015,0.527,-0.565,0.0385,-1.112,-1.299,-1.322,-0.741,0.197,-0.057,-0.1695,0.5515,0.424
-0.734,-0.3105,0.4225,0.522,-0.5785,0.0565,-1.129,-1.312,-1.3165,-0.712,0.226,-0.0375,-0.151,0.5735,0.422
-0.7305,-0.3,0.43,0.515,-0.58,0.0655,-1.14,-1.3155,-1.309,-0.691,0.2435,-0.027,-0.142,0.5785,0.4215
-0.738,-0.308,0.429,0.523,-0.5835,0.061,-1.163,-1.342,-1.3225,-0.6835,0.2625,-0.014,-0.1255,0.57,0.4365
-0.748,-0.3265,0.4205,0.5375,-0.5845,0.0475,-1.2075,-1.426,-1.395,-0.712,0.278,0.0015,-0.112,0.5625,0.4795
-0.743,-0.3305,0.4115,0.5365,-0.577,0.041,-1.243,-1.507,-1.4755,-0.761,0.2735,0.0045,-0.118,0.56,0.52
-0.7355,-0.3365,0.398,0.536,-0.5665,0.0315,-1.2585,-1.553,-1.531,-0.8105,0.2445,-0.01,-0.133,0.554,0.554
-0.7295,-0.3565,0.372,0.543,-0.5505,0.008,-1.263,-1.58,-1.569,-0.844,0.217,-0.034,-0.1575,0.536,0.578
-0.716,-0.3625,0.353,0.539,-0.534,-0.0045,-1.2695,-1.611,-1.6025,-0.8635,0.203,-0.0515,-0.178,0.521,0.5915
-0.698,-0.3645,0.333,0.531,-0.5155,-0.0155,-1.2895,-1.6825,-1.6815,-0.922,0.168,-0.0775,-0.2085,0.5085,0.629
-0.686,-0.377,0.3085,0.5315,-0.497,-0.034,-1.3105,-1.762,-1.784,-1.008,0.118,-0.111,-0.2465,0.493,0.6775
-0.671,-0.366,0.3045,0.5185,-0.4875,-0.0305,-1.3395,-1.861,-1.9035,-1.1115,0.0565,-0.1465,-0.291,0.496,0.729
-0.6365,-0.3425,0.2935,0.4895,-0.465,-0.024,-1.372,-1.992,-2.0685,-1.263,-0.0325,-0.196,-0.3585,0.5015,0.791
-0.588,-0.3115,0.2755,0.4495,-0.4315,-0.018,-1.3965,-2.124,-2.2405,-1.43,-0.129,-0.2475,-0.43,0.5015,0.8505
-0.5555,-0.276,0.2785,0.4155,-0.4165,0.0015,-1.4125,-2.215,-2.359,-1.5515,-0.2025,-0.2865,-0.4815,0.505,0.891
-0.527,-0.2355,0.291,0.381,-0.4085,0.028,-1.4115,-2.254,-2.4185,-1.6235,-0.264,-0.3265,-0.529,0.5205,0.9
-0.5055,-0.1805,0.3245,0.343,-0.415,0.0725,-1.4245,-2.301,-2.473,-1.681,-0.3075,-0.3505,-0.56,0.5595,0.909
-0.4915,-0.105,0.3855,0.298,-0.4385,0.141,-1.4535,-2.3735,-2.5475,-1.7465,-0.345,-0.366,-0.5845,0.614,0.9235
-0.4815,-0.04,0.4405,0.2605,-0.461,0.201,-1.485,-2.4495,-2.6195,-1.799,-0.3605,-0.3645,-0.5955,0.6625,0.938
-0.4825,-0.0035,0.478,0.243,-0.48,0.2375,-1.511,-2.519,-2.7,-1.87,-0.3765,-0.3565,-0.5955,0.6885,0.961
-0.466,0.016,0.481,0.225,-0.4735,0.249,-1.5235,-2.591,-2.8005,-1.9795,-0.423,-0.3675,-0.621,0.6895,0.9945
-0.4555,-0.0395,0.415,0.2475,-0.435,0.1885,-1.5095,-2.62,-2.859,-2.0545,-0.4455,-0.371,-0.64,0.6415,1.024
-0.4585,-0.136,0.322,0.2975,-0.39,0.093,-1.4735,-2.6015,-2.8705,-2.086,-0.4315,-0.3565,-0.6385,0.565,1.037
-0.482,-0.23,0.252,0.356,-0.367,0.011,-1.445,-2.559,-2.8445,-2.0745,-0.3855,-0.318,-0.61,0.502,1.0395
-0.512,-0.3155,0.196,0.414,-0.3535,-0.0595,-1.4285,-2.528,-2.82,-2.052,-0.3345,-0.2775,-0.5745,0.4565,1.0455
-0.536,-0.3655,0.17,0.451,-0.353,-0.0975,-1.4305,-2.5285,-2.8265,-2.0465,-0.2795,-0.2315,-0.5335,0.433,1.057
-0.557,-0.3985,0.158,0.478,-0.3575,-0.12,-1.4355,-2.533,-2.8415,-2.062,-0.243,-0.195,-0.5005,0.418,1.072
-0.5785,-0.4465,0.1315,0.5125,-0.355,-0.157,-1.4355,-2.5315,-2.847,-2.069,-0.2105,-0.1625,-0.4725,0.3915,1.085
-0.6125,-0.524,0.088,0.5685,-0.35,-0.2175,-1.4415,-2.5235,-2.839,-2.051,-0.161,-0.1205,-0.4325,0.3445,1.1015
-0.6415,-0.6025,0.0385,0.622,-0.34,-0.2815,-1.437,-2.5005,-2.816,-2.0235,-0.1235,-0.094,-0.404,0.297,1.118
-0.668,-0.671,-0.004,0.6695,-0.3315,-0.3365,-1.423,-2.459,-2.774,-1.9835,-0.0885,-0.071,-0.3775,0.2555,1.1185
-0.6995,-0.7495,-0.0505,0.7245,-0.324,-0.399,-1.4095,-2.4145,-2.73,-1.941,-0.048,-0.047,-0.3445,0.206,1.117
-0.738,-0.8385,-0.1015,0.7885,-0.318,-0.4695,-1.397,-2.3625,-2.674,-1.888,-0.006,-0.0215,-0.307,0.155,1.1185
-0.775,-0.936,-0.1615,0.8555,-0.3065,-0.548,-1.3935,-2.316,-2.624,-1.8505,0.0105,-0.0115,-0.283,0.0965,1.133
-0.814,-1.046,-0.233,0.9305,-0.2905,-0.639,-1.3845,-2.257,-2.564,-1.7995,0.0365,0.005,-0.2505,0.0235,1.1445
-0.86,-1.16,-0.3015,1.01,-0.279,-0.7305,-1.3685,-2.1955,-2.5015,-1.741,0.0855,0.0385,-0.2065,-0.047,1.145
-0.9055,-1.252,-0.348,1.0785,-0.2785,-0.7995,-1.368,-2.163,-2.4665,-1.709,0.1295,0.074,-0.1625,-0.097,1.1555
-0.9405,-1.3145,-0.375,1.1275,-0.2825,-0.844,-1.3655,-2.1255,-2.423,-1.6645,0.185,0.116,-0.112,-0.133,1.1545
-0.9675,-1.3625,-0.3965,1.1645,-0.285,-0.879,-1.357,-2.0865,-2.381,-1.624,0.234,0.1535,-0.072,-0.157,1.1465
-1.0,-1.4205,-0.4215,1.2105,-0.289,-0.9205,-1.361,-2.0585,-2.353,-1.5955,0.278,0.191,-0.026,-0.1915,1.1535
-1.029,-1.4615,-0.433,1.245,-0.298,-0.947,-1.37,-2.051,-2.337,-1.569,0.3275,0.2355,0.019,-0.212,1.1595
-1.054,-1.478,-0.425,1.266,-0.3145,-0.951,-1.378,-2.051,-2.325,-1.548,0.374,0.284,0.0605,-0.208,1.161
-1.0745,-1.4955,-0.422,1.285,-0.326,-0.9585,-1.3795,-2.0355,-2.3065,-1.529,0.404,0.32,0.095,-0.2165,1.1615
-1.0785,-1.49,-0.413,1.284,-0.3325,-0.951,-1.3715,-2.0225,-2.295,-1.5325,0.39,0.326,0.0945,-0.206,1.157
-1.0755,-1.477,-0.4025,1.276,-0.336,-0.9395,-1.3675,-2.0145,-2.2835,-1.5335,0.378,0.334,0.0925,-0.1855,1.1535
-1.0605,-1.4545,-0.395,1.2575,-0.332,-0.9245,-1.3625,-2.0165,-2.2815,-1.538,0.37,0.3465,0.0925,-0.1705,1.1565
-1.0375,-1.4095,-0.373,1.223,-0.332,-0.8905,-1.3495,-2.017,-2.282,-1.547,0.3605,0.3555,0.086,-0.1395,1.1485
-1.028,-1.358,-0.331,1.1925,-0.348,-0.844,-1.3385,-2.0025,-2.261,-1.534,0.3765,0.3805,0.094,-0.0935,1.1245
-1.0285,-1.3185,-0.291,1.1735,-0.3685,-0.8045,-1.3265,-1.9775,-2.227,-1.508,0.3985,0.4085,0.112,-0.053,1.0985
-1.0345,-1.313,-0.2795,1.1735,-0.3775,-0.7955,-1.319,-1.9535,-2.196,-1.483,0.4085,0.424,0.1255,-0.041,1.083
-1.046,-1.3285,-0.2835,1.187,-0.381,-0.8055,-1.3155,-1.9245,-2.1575,-1.451,0.4085,0.4255,0.1335,-0.0485,1.0715
-1.0515,-1.334,-0.2835,1.1925,-0.384,-0.8085,-1.311,-1.896,-2.1165,-1.4125,0.4105,0.424,0.139,-0.0485,1.056
-1.0365,-1.298,-0.263,1.167,-0.3865,-0.78,-1.316,-1.8955,-2.107,-1.4105,0.3925,0.414,0.127,-0.024,1.049
-1.019,-1.253,-0.235,1.136,-0.3915,-0.744,-1.316,-1.8835,-2.0915,-1.4105,0.376,0.402,0.1155,0.003,1.0345
-1.0145,-1.2375,-0.224,1.126,-0.3955,-0.73,-1.302,-1.8475,-2.05,-1.3845,0.3715,0.3945,0.1125,0.0115,1.0115
-1.0145,-1.2285,-0.2145,1.1215,-0.4,-0.721,-1.281,-1.792,-1.9845,-1.333,0.373,0.3805,0.1095,0.0175,0.979
-1.0175,-1.22,-0.203,1.1185,-0.407,-0.711,-1.2605,-1.735,-1.916,-1.276,0.3765,0.3645,0.1075,0.023,0.9425
-1.015,-1.216,-0.202,1.115,-0.406,-0.708,-1.2475,-1.683,-1.8575,-1.2285,0.3625,0.3365,0.095,0.02,0.915
-1.004,-1.2075,-0.204,1.1055,-0.3995,-0.7055,-1.2325,-1.6325,-1.8005,-1.182,0.355,0.3075,0.079,0.0225,0.8875
-1.0025,-1.1995,-0.1975,1.1005,-0.402,-0.698,-1.2255,-1.6035,-1.7695,-1.162,0.345,0.296,0.075,0.028,0.872
-1.0125,-1.199,-0.1875,1.1055,-0.412,-0.6925,-1.2195,-1.567,-1.7275,-1.1255,0.3495,0.293,0.085,0.024,0.852
-1.0245,-1.201,-0.1775,1.1125,-0.423,-0.6885,-1.208,-1.517,-1.6655,-1.063,0.3805,0.3,0.105,0.0235,0.82
-1.0345,-1.199,-0.166,1.1165,-0.434,-0.682,-1.1965,-1.4605,-1.6025,-1.005,0.404,0.3,0.119,0.0275,0.79
-1.033,-1.1785,-0.1465,1.1055,-0.443,-0.662,-1.175,-1.3915,-1.5285,-0.94,0.4115,0.282,0.1145,0.04,0.7475
-1.027,-1.1425,-0.1165,1.0845,-0.455,-0.629,-1.151,-1.318,-1.4465,-0.869,0.4185,0.2575,0.109,0.065,0.6975
-1.017,-1.112,-0.096,1.0645,-0.4605,-0.6035,-1.127,-1.256,-1.3755,-0.8065,0.431,0.236,0.103,0.08,0.656
-0.998,-1.087,-0.09,1.0425,-0.4535,-0.5885,-1.1005,-1.201,-1.319,-0.76,0.4215,0.201,0.079,0.0865,0.622
-0.974,-1.056,-0.083,1.0155,-0.445,-0.569,-1.076,-1.15,-1.269,-0.724,0.394,0.152,0.0465,0.0965,0.591
-0.951,-1.022,-0.0725,0.987,-0.439,-0.5465,-1.053,-1.1135,-1.228,-0.6895,0.3925,0.1275,0.029,0.1105,0.56
-0.9295,-0.992,-0.064,0.961,-0.4325,-0.5275,-1.029,-1.075,-1.1875,-0.651,0.402,0.109,0.014,0.124,0.526
-0.908,-0.9675,-0.0605,0.938,-0.4235,-0.5135,-1.005,-1.044,-1.159,-0.634,0.3835,0.0795,-0.0095,0.1315,0.503
-0.8935,-0.9515,-0.0585,0.9225,-0.4175,-0.5045,-0.986,-1.0205,-1.139,-0.626,0.3635,0.055,-0.0295,0.1335,0.485
-0.8845,-0.9345,-0.051,0.91,-0.4165,-0.492,-0.9725,-0.9995,-1.119,-0.615,0.35,0.0315,-0.047,0.1375,0.4675
-0.876,-0.9235,-0.0485,0.9,-0.4135,-0.4855,-0.961,-0.9825,-1.1045,-0.607,0.338,0.014,-0.059,0.141,0.455
-0.8685,-0.9165,-0.0495,0.893,-0.4095,-0.4825,-0.9505,-0.967,-1.0895,-0.6,0.3235,-0.0035,-0.0745,0.1455,0.445
-0.8645,-0.9115,-0.048,0.888,-0.408,-0.479,-0.942,-0.954,-1.0785,-0.5975,0.3055,-0.0195,-0.089,0.149,0.4395
-0.8535,-0.903,-0.05,0.8785,-0.4015,-0.476,-0.9345,-0.9445,-1.072,-0.5965,0.292,-0.0335,-0.1015,0.149,0.432
-0.841,-0.89,-0.05,0.866,-0.3955,-0.4695,-0.927,-0.9375,-1.066,-0.597,0.279,-0.048,-0.1145,0.1545,0.4255
-0.8355,-0.878,-0.0435,0.857,-0.3955,-0.4605,-0.92,-0.929,-1.0575,-0.5935,0.2685,-0.0585,-0.126,0.162,0.4195
-0.8245,-0.863,-0.039,0.844,-0.3925,-0.4505,-0.914,-0.9235,-1.0525,-0.5925,0.2555,-0.0735,-0.137,0.171,0.4155
-0.809,-0.8485,-0.04,0.8285,-0.3845,-0.443,-0.9085,-0.921,-1.053,-0.597,0.2395,-0.088,-0.151,0.1775,0.4135
-0.7935,-0.8265,-0.0335,0.8105,-0.38,-0.4295,-0.902,-0.92,-1.0525,-0.6015,0.225,-0.103,-0.167,0.1865,0.407
-0.782,-0.8135,-0.032,0.7975,-0.3745,-0.422,-0.8955,-0.915,-1.0485,-0.6025,0.216,-0.113,-0.1765,0.191,0.401
-0.774,-0.8065,-0.033,0.79,-0.3705,-0.419,-0.891,-0.9125,-1.047,-0.6045,0.2065,-0.123,-0.1875,0.1895,0.397
-0.767,-0.796,-0.03,0.7815,-0.3685,-0.4125,-0.889,-0.91,-1.0455,-0.6055,0.1995,-0.132,-0.192,0.193,0.3955
-0.7645,-0.791,-0.027,0.7775,-0.3685,-0.408,-0.883,-0.903,-1.04,-0.6025,0.194,-0.138,-0.198,0.199,0.393
-0.7655,-0.7895,-0.0245,0.7775,-0.37,-0.406,-0.8785,-0.897,-1.0345,-0.5995,0.1905,-0.1445,-0.2055,0.1965,0.3895
-0.767,-0.791,-0.025,0.779,-0.3705,-0.407,-0.8795,-0.893,-1.031,-0.597,0.1925,-0.143,-0.203,0.19,0.387
-0.767,-0.79,-0.0235,0.7785,-0.3715,-0.406,-0.8785,-0.892,-1.027,-0.5955,0.192,-0.1425,-0.202,0.1895,0.3855
-0.765,-0.7885,-0.024,0.7765,-0.37,-0.4055,-0.8805,-0.8925,-1.027,-0.596,0.1905,-0.1465,-0.2045,0.188,0.3845
-0.7665,-0.788,-0.0225,0.777,-0.3715,-0.4045,-0.88,-0.89,-1.0255,-0.5945,0.188,-0.1475,-0.2045,0.191,0.3835
-0.765,-0.7845,-0.02,0.7745,-0.372,-0.4015,-0.8765,-0.8865,-1.02,-0.5905,0.1885,-0.147,-0.205,0.1915,0.3815
-0.7595,-0.7805,-0.0215,0.77,-0.369,-0.4,-0.8745,-0.884,-1.018,-0.5885,0.189,-0.1505,-0.2085,0.186,0.379
-0.758,-0.7795,-0.022,0.7685,-0.3675,-0.4,-0.874,-0.881,-1.016,-0.5875,0.187,-0.152,-0.21,0.1835,0.3795
-0.7585,-0.78,-0.0225,0.7695,-0.368,-0.4005,-0.8745,-0.8785,-1.0125,-0.5865,0.185,-0.1535,-0.212,0.1825,0.379
-0.7595,-0.78,-0.021,0.77,-0.369,-0.3995,-0.8735,-0.874,-1.008,-0.5825,0.1865,-0.1525,-0.2115,0.186,0.3755
-0.7575,-0.7765,-0.0195,0.767,-0.3685,-0.397,-0.872,-0.87,-1.0055,-0.58,0.188,-0.1505,-0.2115,0.188,0.375
-0.756,-0.7745,-0.019,0.7655,-0.368,-0.3965,-0.871,-0.869,-1.0035,-0.5795,0.1875,-0.1515,-0.2125,0.188,0.3745
-0.755,-0.7735,-0.019,0.7645,-0.368,-0.3955,-0.869,-0.8685,-1.0015,-0.5795,0.186,-0.1525,-0.214,0.1895,0.373
-0.7535,-0.7715,-0.0185,0.7625,-0.367,-0.394,-0.8685,-0.8675,-1.0,-0.5795,0.185,-0.153,-0.2165,0.1915,0.3705
-0.752,-0.773,-0.021,0.7625,-0.365,-0.3965,-0.868,-0.867,-0.9995,-0.5795,0.1845,-0.1555,-0.219,0.189,0.3685
-0.754,-0.775,-0.0215,0.7645,-0.366,-0.3975,-0.868,-0.866,-0.997,-0.578,0.1855,-0.1555,-0.219,0.1875,0.369
-0.7545,-0.775,-0.021,0.765,-0.3665,-0.3975,-0.868,-0.8655,-0.996,-0.576,0.1865,-0.153,-0.2175,0.1895,0.3695
-0.7505,-0.7735,-0.024,0.762,-0.363,-0.398,-0.867,-0.8635,-0.9965,-0.576,0.1835,-0.1565,-0.221,0.1895,0.368
-0.748,-0.7715,-0.024,0.76,-0.362,-0.397,-0.8685,-0.8635,-0.9955,-0.5755,0.182,-0.1585,-0.2225,0.191,0.3685
-0.7495,-0.7725,-0.0235,0.7615,-0.363,-0.3975,-0.8675,-0.863,-0.992,-0.5725,0.184,-0.1565,-0.2195,0.192,0.367
-0.752,-0.7725,-0.021,0.762,-0.365,-0.396,-0.867,-0.8625,-0.99,-0.5715,0.184,-0.1585,-0.2195,0.1895,0.366
-0.752,-0.77,-0.0185,0.761,-0.3665,-0.3935,-0.868,-0.8635,-0.991,-0.5735,0.182,-0.162,-0.2215,0.191,0.366
-0.7525,-0.77,-0.018,0.7615,-0.367,-0.3935,-0.8655,-0.862,-0.99,-0.5725,0.1815,-0.1615,-0.224,0.194,0.363
-0.7535,-0.768,-0.0155,0.7605,-0.3685,-0.391,-0.8655,-0.861,-0.9885,-0.5725,0.18,-0.1615,-0.225,0.1965,0.362
-0.7555,-0.7685,-0.014,0.762,-0.3705,-0.3905,-0.867,-0.8595,-0.987,-0.572,0.18,-0.163,-0.2225,0.1965,0.361
-0.759,-0.77,-0.011,0.7645,-0.3735,-0.39,-0.8685,-0.8595,-0.9865,-0.5695,0.181,-0.1635,-0.221,0.198,0.3615
-0.76,-0.767,-0.0075,0.7635,-0.376,-0.3865,-0.868,-0.859,-0.985,-0.569,0.181,-0.1635,-0.2225,0.202,0.3605
-0.7565,-0.7665,-0.0105,0.7615,-0.3725,-0.3875,-0.8695,-0.859,-0.985,-0.569,0.18,-0.1645,-0.2245,0.199,0.359
-0.755,-0.766,-0.012,0.7605,-0.371,-0.3885,-0.873,-0.861,-0.9855,-0.5695,0.1785,-0.165,-0.2255,0.2,0.3595
-0.753,-0.765,-0.0125,0.759,-0.37,-0.388,-0.871,-0.858,-0.983,-0.5675,0.18,-0.164,-0.225,0.202,0.358
-0.7485,-0.763,-0.015,0.7555,-0.3665,-0.388,-0.8715,-0.8575,-0.983,-0.5665,0.1795,-0.167,-0.227,0.1975,0.357
-0.7535,-0.765,-0.012,0.759,-0.3705,-0.3875,-0.8705,-0.8555,-0.9805,-0.565,0.1795,-0.1655,-0.226,0.1945,0.358
-0.757,-0.767,-0.0105,0.762,-0.373,-0.388,-0.8695,-0.8525,-0.9775,-0.563,0.181,-0.1635,-0.2235,0.192,0.36
-0.7585,-0.768,-0.01,0.7635,-0.374,-0.388,-0.87,-0.851,-0.9765,-0.5625,0.1815,-0.1635,-0.2215,0.191,0.362
-0.764,-0.7695,-0.006,0.7665,-0.379,-0.387,-0.8705,-0.848,-0.9745,-0.5605,0.1825,-0.1615,-0.22,0.2055,0.3625
-0.7625,-0.7675,-0.0055,0.765,-0.3785,-0.386,-0.8715,-0.849,-0.9725,-0.5595,0.1835,-0.162,-0.22,0.2105,0.363
-0.7585,-0.767,-0.009,0.763,-0.3745,-0.387,-0.872,-0.849,-0.973,-0.5595,0.183,-0.1635,-0.219,0.1975,0.3635
-0.7575,-0.767,-0.01,0.7625,-0.3735,-0.3875,-0.8735,-0.848,-0.9735,-0.5595,0.1825,-0.164,-0.2165,0.1935,0.3645
-0.761,-0.7685,-0.008,0.765,-0.3765,-0.3875,-0.874,-0.8465,-0.971,-0.5565,0.1855,-0.1595,-0.212,0.194,0.3635
-0.7655,-0.769,-0.0035,0.767,-0.381,-0.3855,-0.8735,-0.8425,-0.969,-0.555,0.185,-0.1615,-0.213,0.1945,0.362
-0.7635,-0.768,-0.005,0.766,-0.3785,-0.386,-0.873,-0.842,-0.97,-0.557,0.1785,-0.169,-0.2195,0.195,0.361
-0.759,-0.7655,-0.007,0.7625,-0.376,-0.3855,-0.872,-0.842,-0.969,-0.5575,0.1775,-0.1685,-0.2195,0.1975,0.36
-0.7615,-0.764,-0.0025,0.7625,-0.3795,-0.3825,-0.872,-0.8405,-0.966,-0.5565,0.1815,-0.1655,-0.2155,0.198,0.3605
-0.7635,-0.766,-0.003,0.7645,-0.38,-0.3835,-0.873,-0.8385,-0.964,-0.558,0.1825,-0.164,-0.2155,0.199,0.36
-0.7655,-0.767,-0.002,0.766,-0.3815,-0.384,-0.872,-0.8355,-0.962,-0.558,0.1815,-0.1655,-0.218,0.2035,0.3595
-0.77,-0.7695,-0.0005,0.77,-0.3845,-0.3845,-0.872,-0.8325,-0.96,-0.5535,0.1805,-0.1655,-0.217,0.2075,0.3595
-0.768,-0.7685,-0.001,0.7685,-0.3835,-0.384,-0.872,-0.8305,-0.9575,-0.5495,0.1815,-0.166,-0.217,0.2075,0.3575
-0.7655,-0.7675,-0.002,0.7665,-0.3815,-0.384,-0.8715,-0.83,-0.956,-0.547,0.183,-0.1665,-0.2185,0.2065,0.3555
-0.763,-0.7665,-0.0045,0.765,-0.379,-0.3845,-0.871,-0.828,-0.9545,-0.5445,0.1835,-0.166,-0.2205,0.204,0.354
-0.7615,-0.7685,-0.0075,0.765,-0.3765,-0.3875,-0.8705,-0.826,-0.9515,-0.541,0.1845,-0.167,-0.2215,0.2,0.3535
-0.7665,-0.773,-0.007,0.7695,-0.3795,-0.3895,-0.871,-0.824,-0.949,-0.5365,0.187,-0.165,-0.221,0.202,0.352
-0.7685,-0.775,-0.007,0.7715,-0.3805,-0.3905,-0.871,-0.821,-0.9465,-0.5345,0.188,-0.165,-0.222,0.1995,0.35
-0.7665,-0.774,-0.008,0.77,-0.379,-0.3905,-0.872,-0.821,-0.9455,-0.5325,0.1885,-0.166,-0.223,0.197,0.3475
-0.765,-0.7725,-0.008,0.769,-0.3785,-0.3895,-0.872,-0.819,-0.942,-0.528,0.19,-0.166,-0.2235,0.201,0.3475
-0.7675,-0.7725,-0.006,0.77,-0.381,-0.3885,-0.872,-0.8175,-0.9395,-0.527,0.19,-0.167,-0.2235,0.205,0.3475
-0.77,-0.7705,-0.001,0.7705,-0.384,-0.385,-0.8725,-0.817,-0.938,-0.5245,0.1915,-0.166,-0.221,0.2075,0.3465
-0.77,-0.7725,-0.0035,0.771,-0.383,-0.387,-0.872,-0.8145,-0.9355,-0.5235,0.191,-0.166,-0.2205,0.2045,0.347
-0.7715,-0.7725,-0.0015,0.772,-0.385,-0.3865,-0.872,-0.813,-0.9355,-0.524,0.19,-0.1675,-0.222,0.204,0.345
-0.7715,-0.7725,-0.0015,0.772,-0.385,-0.386,-0.8725,-0.812,-0.933,-0.521,0.1915,-0.1685,-0.222,0.2025,0.343
-0.772,-0.7745,-0.003,0.773,-0.3845,-0.388,-0.873,-0.8115,-0.929,-0.518,0.191,-0.17,-0.2225,0.2015,0.3415
-0.7735,-0.7725,0.0,0.773,-0.3865,-0.3855,-0.8725,-0.8095,-0.927,-0.516,0.1905,-0.1715,-0.2205,0.202,0.341
-0.774,-0.7725,0.001,0.7735,-0.3875,-0.3855,-0.8725,-0.8085,-0.925,-0.515,0.1905,-0.1725,-0.22,0.202,0.3385
-0.7755,-0.7715,0.0035,0.7735,-0.3895,-0.3835,-0.871,-0.8055,-0.92,-0.5115,0.193,-0.1725,-0.221,0.2055,0.337
-0.7795,-0.772,0.0065,0.776,-0.393,-0.382,-0.87,-0.8025,-0.9165,-0.5085,0.195,-0.172,-0.2165,0.2075,0.3375
-0.78,-0.772,0.008,0.776,-0.3935,-0.381,-0.87,-0.8005,-0.9135,-0.5045,0.1975,-0.172,-0.215,0.209,0.3355
-0.7745,-0.7655,0.0085,0.77,-0.391,-0.378,-0.868,-0.795,-0.9085,-0.4985,0.2025,-0.169,-0.214,0.2075,0.332
-0.7755,-0.766,0.009,0.771,-0.392,-0.378,-0.8675,-0.7925,-0.9045,-0.4965,0.2045,-0.168,-0.2115,0.205,0.3305
-0.7795,-0.768,0.011,0.7735,-0.395,-0.3775,-0.868,-0.791,-0.903,-0.4955,0.202,-0.1685,-0.2115,0.2065,0.331
-0.78,-0.766,0.0135,0.773,-0.3965,-0.3755,-0.87,-0.7895,-0.902,-0.4935,0.202,-0.167,-0.208,0.2105,0.3315
-0.7805,-0.7645,0.0155,0.7725,-0.398,-0.3735,-0.8705,-0.788,-0.898,-0.4905,0.203,-0.17,-0.2095,0.211,0.3315
-0.7785,-0.763,0.015,0.7705,-0.3965,-0.3735,-0.8685,-0.7855,-0.8955,-0.4895,0.201,-0.1735,-0.21,0.21,0.3325
-0.7795,-0.763,0.016,0.771,-0.3975,-0.373,-0.8675,-0.781,-0.8915,-0.4855,0.2025,-0.1715,-0.207,0.2135,0.3315
-0.7825,-0.763,0.019,0.7725,-0.4005,-0.3715,-0.865,-0.7775,-0.8865,-0.4815,0.205,-0.1715,-0.207,0.213,0.329
-0.7845,-0.762,0.022,0.773,-0.403,-0.369,-0.867,-0.777,-0.884,-0.4795,0.204,-0.172,-0.207,0.211,0.3265
-0.7845,-0.7605,0.0235,0.7725,-0.4035,-0.3675,-0.8655,-0.7735,-0.8805,-0.4745,0.205,-0.17,-0.2075,0.2105,0.324
-0.7845,-0.757,0.027,0.7705,-0.4055,-0.364,-0.864,-0.7705,-0.876,-0.472,0.207,-0.168,-0.203,0.2145,0.3245
-0.7835,-0.755,0.028,0.7695,-0.4055,-0.363,-0.865,-0.7675,-0.872,-0.468,0.21,-0.1675,-0.201,0.217,0.323
-0.7805,-0.752,0.028,0.766,-0.404,-0.3615,-0.8645,-0.766,-0.8705,-0.4645,0.2115,-0.1665,-0.2015,0.221,0.321
-0.7835,-0.751,0.032,0.767,-0.4075,-0.3585,-0.8665,-0.763,-0.8665,-0.461,0.2145,-0.1645,-0.199,0.2245,0.319
-0.791,-0.7555,0.035,0.7735,-0.4125,-0.3595,-0.8665,-0.759,-0.861,-0.456,0.2175,-0.1625,-0.1945,0.2255,0.317
-0.7925,-0.7575,0.0345,0.775,-0.4135,-0.3605,-0.8675,-0.7565,-0.8575,-0.4535,0.2185,-0.162,-0.1915,0.2275,0.317
-0.789,-0.7565,0.032,0.7725,-0.41,-0.3615,-0.8655,-0.751,-0.8535,-0.4505,0.22,-0.161,-0.1925,0.2255,0.314
-0.788,-0.7525,0.0345,0.77,-0.411,-0.3585,-0.8645,-0.7495,-0.8485,-0.448,0.221,-0.16,-0.192,0.2275,0.31
-0.7855,-0.751,0.0345,0.7685,-0.41,-0.3575,-0.8625,-0.748,-0.846,-0.4455,0.222,-0.16,-0.1915,0.227,0.3095
-0.7875,-0.753,0.034,0.77,-0.4105,-0.3585,-0.859,-0.742,-0.842,-0.442,0.2215,-0.1605,-0.1945,0.226,0.308
-0.7925,-0.755,0.037,0.7735,-0.4145,-0.358,-0.8625,-0.7395,-0.8375,-0.4385,0.2225,-0.159,-0.1935,0.2285,0.3075
-0.7935,-0.756,0.037,0.775,-0.415,-0.3585,-0.863,-0.7355,-0.835,-0.4355,0.2245,-0.1585,-0.1935,0.2275,0.3065
-0.7925,-0.754,0.038,0.773,-0.415,-0.357,-0.861,-0.733,-0.832,-0.431,0.225,-0.159,-0.1935,0.229,0.3035
-0.789,-0.749,0.0395,0.769,-0.414,-0.354,-0.8625,-0.731,-0.828,-0.428,0.2245,-0.1585,-0.1935,0.231,0.302
-0.7915,-0.7495,0.0415,0.7705,-0.416,-0.3535,-0.861,-0.7255,-0.8225,-0.424,0.227,-0.157,-0.192,0.2315,0.2995
-0.798,-0.752,0.0455,0.775,-0.4215,-0.3525,-0.861,-0.7205,-0.817,-0.4175,0.231,-0.1535,-0.1875,0.234,0.2975
-0.7975,-0.748,0.0485,0.773,-0.4225,-0.349,-0.8625,-0.7175,-0.8135,-0.4135,0.232,-0.152,-0.1855,0.234,0.2975
-0.795,-0.745,0.0495,0.77,-0.422,-0.347,-0.8615,-0.714,-0.8085,-0.4095,0.2335,-0.1515,-0.185,0.234,0.295
-0.7975,-0.745,0.052,0.7715,-0.4245,-0.346,-0.8625,-0.7105,-0.804,-0.406,0.234,-0.1505,-0.1835,0.24,0.2925
-0.7985,-0.7445,0.0535,0.7715,-0.4255,-0.3445,-0.862,-0.708,-0.7995,-0.4015,0.236,-0.1495,-0.182,0.2425,0.2885
-0.797,-0.7435,0.0525,0.77,-0.4245,-0.3445,-0.86,-0.704,-0.794,-0.397,0.2375,-0.1475,-0.18,0.243,0.287
-0.799,-0.743,0.0555,0.771,-0.427,-0.3425,-0.858,-0.702,-0.7905,-0.394,0.238,-0.148,-0.18,0.2425,0.2865
-0.801,-0.742,0.059,0.7715,-0.4295,-0.3405,-0.859,-0.699,-0.787,-0.3895,0.2405,-0.148,-0.1795,0.241,0.282
-0.8055,-0.742,0.063,0.7735,-0.434,-0.3385,-0.8605,-0.696,-0.7815,-0.3855,0.2415,-0.145,-0.1735,0.2435,0.2795
-0.8055,-0.7385,0.0665,0.772,-0.436,-0.335,-0.861,-0.6935,-0.778,-0.3815,0.2435,-0.145,-0.173,0.247,0.278
-0.8055,-0.7385,0.0665,0.772,-0.4355,-0.3355,-0.8625,-0.6905,-0.7745,-0.3785,0.244,-0.145,-0.1715,0.246,0.2765
-0.808,-0.7395,0.068,0.774,-0.438,-0.335,-0.861,-0.687,-0.77,-0.374,0.2465,-0.1435,-0.1685,0.248,0.2745
-0.8085,-0.7375,0.0705,0.773,-0.4395,-0.3325,-0.8595,-0.6845,-0.767,-0.3695,0.249,-0.1425,-0.1665,0.254,0.2745
-0.811,-0.7365,0.074,0.7735,-0.4425,-0.3305,-0.8605,-0.6835,-0.7635,-0.3665,0.251,-0.1415,-0.1645,0.2555,0.274
-0.813,-0.735,0.0775,0.7745,-0.445,-0.328,-0.8595,-0.68,-0.7595,-0.362,0.2535,-0.1395,-0.162,0.2555,0.2725
-0.8145,-0.7315,0.0825,0.773,-0.448,-0.3235,-0.8595,-0.6785,-0.756,-0.3585,0.2535,-0.1375,-0.159,0.2565,0.2725
-0.8125,-0.726,0.0865,0.7695,-0.4495,-0.319,-0.86,-0.6775,-0.754,-0.356,0.2535,-0.138,-0.158,0.258,0.272
-0.8125,-0.7245,0.088,0.7685,-0.45,-0.3175,-0.8595,-0.674,-0.751,-0.354,0.2545,-0.137,-0.155,0.2655,0.273
-0.816,-0.724,0.091,0.77,-0.453,-0.316,-0.861,-0.672,-0.748,-0.3515,0.2565,-0.1355,-0.1525,0.27,0.272
-0.814,-0.7215,0.0915,0.768,-0.453,-0.3145,-0.8625,-0.6695,-0.7455,-0.3485,0.2565,-0.1355,-0.1525,0.2715,0.271
-0.815,-0.7205,0.0945,0.7675,-0.4545,-0.312,-0.8625,-0.666,-0.743,-0.3445,0.2585,-0.134,-0.151,0.2745,0.268
-0.822,-0.7215,0.1005,0.7715,-0.461,-0.3095,-0.8625,-0.6655,-0.7405,-0.341,0.2605,-0.133,-0.15,0.2735,0.265
-0.8235,-0.717,0.1065,0.7705,-0.465,-0.3045,-0.864,-0.6645,-0.737,-0.3375,0.262,-0.1315,-0.1465,0.278,0.265
-0.8235,-0.712,0.1115,0.768,-0.467,-0.2995,-0.8665,-0.665,-0.736,-0.334,0.263,-0.1305,-0.143,0.283,0.2645
-0.8255,-0.712,0.1135,0.7685,-0.4695,-0.2985,-0.868,-0.664,-0.734,-0.3325,0.2635,-0.1295,-0.1415,0.283,0.2625
-0.826,-0.711,0.1145,0.7685,-0.47,-0.2975,-0.8705,-0.6645,-0.733,-0.3325,0.2645,-0.1285,-0.139,0.2815,0.2625
-0.825,-0.7075,0.117,0.7665,-0.4705,-0.2945,-0.8725,-0.6635,-0.7325,-0.331,0.2645,-0.1285,-0.137,0.282,0.264
-0.8245,-0.702,0.122,0.7635,-0.4735,-0.289,-0.869,-0.658,-0.7255,-0.325,0.2675,-0.126,-0.1365,0.291,0.2585
-0.825,-0.6975,0.1265,0.7615,-0.4755,-0.2845,-0.869,-0.657,-0.724,-0.3215,0.2685,-0.1235,-0.1355,0.2975,0.2575
-0.825,-0.695,0.129,0.76,-0.4765,-0.282,-0.8735,-0.659,-0.725,-0.3215,0.2685,-0.124,-0.1355,0.296,0.2605
-0.821,-0.691,0.13,0.756,-0.4755,-0.2795,-0.8755,-0.66,-0.724,-0.3205,0.269,-0.124,-0.1355,0.3015,0.2595
-0.8215,-0.688,0.1335,0.7545,-0.4775,-0.2765,-0.8755,-0.6585,-0.7215,-0.319,0.2705,-0.1215,-0.133,0.311,0.259
-0.8255,-0.687,0.138,0.756,-0.481,-0.2735,-0.8765,-0.6575,-0.719,-0.317,0.2715,-0.119,-0.132,0.312,0.2585
-0.8275,-0.6835,0.1435,0.7555,-0.485,-0.2695,-0.8785,-0.6595,-0.7205,-0.3155,0.27,-0.118,-0.129,0.3135,0.259
-0.827,-0.6795,0.147,0.7535,-0.487,-0.2655,-0.88,-0.661,-0.721,-0.315,0.27,-0.118,-0.1295,0.3135,0.2585
-0.828,-0.679,0.148,0.7535,-0.4875,-0.2645,-0.882,-0.66,-0.7205,-0.313,0.272,-0.1155,-0.128,0.314,0.258
-0.832,-0.679,0.1525,0.7555,-0.492,-0.2625,-0.884,-0.66,-0.7185,-0.312,0.274,-0.1135,-0.123,0.318,0.258
-0.8275,-0.6755,0.152,0.7515,-0.4895,-0.261,-0.8855,-0.664,-0.718,-0.313,0.2745,-0.1135,-0.1245,0.316,0.2575
-0.829,-0.6725,0.156,0.751,-0.4925,-0.2575,-0.8875,-0.666,-0.72,-0.312,0.2755,-0.1115,-0.122,0.32,0.2595
-0.836,-0.6725,0.163,0.7545,-0.4995,-0.2545,-0.89,-0.6675,-0.72,-0.3105,0.277,-0.1085,-0.118,0.325,0.2605
-0.8365,-0.671,0.165,0.7535,-0.5005,-0.253,-0.8915,-0.67,-0.7205,-0.3095,0.2795,-0.1065,-0.118,0.3245,0.2595
-0.836,-0.6685,0.1675,0.752,-0.5015,-0.25,-0.8935,-0.6715,-0.722,-0.309,0.281,-0.1045,-0.116,0.3255,0.26
-0.836,-0.6665,0.169,0.7515,-0.5025,-0.248,-0.896,-0.673,-0.723,-0.3085,0.281,-0.102,-0.111,0.3205,0.2615
-0.835,-0.6645,0.17,0.7495,-0.5025,-0.247,-0.8995,-0.676,-0.725,-0.3105,0.28,-0.1025,-0.1105,0.3175,0.2625
-0.8345,-0.6635,0.17,0.749,-0.502,-0.2465,-0.9015,-0.679,-0.728,-0.3125,0.279,-0.102,-0.111,0.3205,0.2635
-0.837,-0.663,0.1735,0.75,-0.505,-0.2445,-0.9035,-0.6815,-0.7305,-0.3135,0.279,-0.1,-0.1085,0.324,0.2645
-0.838,-0.661,0.1765,0.7495,-0.507,-0.242,-0.9065,-0.684,-0.7335,-0.3145,0.2785,-0.1,-0.1085,0.3255,0.2655
-0.839,-0.66,0.1785,0.749,-0.5085,-0.2405,-0.9085,-0.6875,-0.736,-0.317,0.2775,-0.099,-0.107,0.327,0.2665
-0.845,-0.6615,0.183,0.753,-0.514,-0.239,-0.912,-0.691,-0.736,-0.3175,0.2805,-0.094,-0.1025,0.3275,0.27
-0.8505,-0.6605,0.189,0.7555,-0.5195,-0.2355,-0.914,-0.694,-0.738,-0.316,0.2835,-0.09,-0.097,0.3305,0.274
-0.8495,-0.6565,0.192,0.753,-0.5205,-0.232,-0.9175,-0.699,-0.7425,-0.319,0.2825,-0.0895,-0.098,0.338,0.2765
-0.846,-0.654,0.192,0.7495,-0.5185,-0.2305,-0.9205,-0.703,-0.7465,-0.3205,0.283,-0.089,-0.1,0.342,0.2785
-0.8405,-0.651,0.189,0.7455,-0.5145,-0.231,-0.9235,-0.709,-0.752,-0.3235,0.283,-0.0885,-0.1,0.343,0.2785
-0.8415,-0.6515,0.1895,0.7465,-0.5155,-0.2305,-0.9275,-0.713,-0.7545,-0.3255,0.284,-0.088,-0.0985,0.342,0.2795
-0.8475,-0.6535,0.1935,0.7505,-0.5205,-0.2295,-0.9295,-0.717,-0.7585,-0.327,0.285,-0.0835,-0.096,0.34,0.281
-0.8475,-0.6545,0.1925,0.751,-0.52,-0.231,-0.934,-0.7225,-0.763,-0.3295,0.2855,-0.081,-0.0955,0.3405,0.282
-0.847,-0.6535,0.193,0.75,-0.52,-0.23,-0.9365,-0.726,-0.767,-0.3305,0.2865,-0.0795,-0.0955,0.34,0.283
-0.846,-0.6495,0.196,0.748,-0.5205,-0.2265,-0.9385,-0.7315,-0.7735,-0.334,0.287,-0.0775,-0.097,0.3445,0.2835
-0.8475,-0.648,0.199,0.7475,-0.523,-0.224,-0.941,-0.7365,-0.7775,-0.337,0.288,-0.076,-0.0965,0.352,0.2865
-0.845,-0.6465,0.198,0.746,-0.521,-0.224,-0.947,-0.7445,-0.7855,-0.3415,0.2875,-0.077,-0.096,0.353,0.2915
-0.844,-0.645,0.1985,0.7445,-0.521,-0.223,-0.9515,-0.7515,-0.7925,-0.3475,0.2855,-0.077,-0.0965,0.3555,0.2945
-0.8485,-0.645,0.203,0.7465,-0.5255,-0.2205,-0.953,-0.7565,-0.798,-0.353,0.282,-0.078,-0.098,0.3595,0.297
-0.8505,-0.6465,0.2035,0.749,-0.527,-0.2215,-0.957,-0.765,-0.8065,-0.357,0.281,-0.077,-0.098,0.3575,0.3005
-0.854,-0.647,0.2065,0.7505,-0.53,-0.22,-0.96,-0.774,-0.813,-0.362,0.283,-0.0745,-0.096,0.359,0.305
-0.8535,-0.646,0.207,0.75,-0.53,-0.2195,-0.9635,-0.7815,-0.8205,-0.368,0.2835,-0.074,-0.0965,0.3615,0.3095
-0.85,-0.6435,0.206,0.747,-0.528,-0.2185,-0.9675,-0.7895,-0.8285,-0.3735,0.282,-0.073,-0.096,0.363,0.3155
-0.846,-0.641,0.2045,0.7435,-0.525,-0.218,-0.968,-0.798,-0.8365,-0.3805,0.2785,-0.0725,-0.099,0.3625,0.318
-0.8465,-0.6405,0.2055,0.743,-0.526,-0.217,-0.9705,-0.807,-0.8465,-0.388,0.276,-0.0725,-0.1015,0.3645,0.3195
-0.846,-0.6395,0.206,0.743,-0.5255,-0.2165,-0.9725,-0.815,-0.856,-0.393,0.2745,-0.072,-0.1015,0.366,0.322
-0.846,-0.642,0.2035,0.744,-0.5245,-0.219,-0.974,-0.8195,-0.8625,-0.399,0.275,-0.072,-0.1015,0.361,0.3255
-0.846,-0.6415,0.204,0.7435,-0.5245,-0.2185,-0.978,-0.8285,-0.8725,-0.406,0.275,-0.0725,-0.102,0.3595,0.3305
-0.849,-0.643,0.2055,0.746,-0.527,-0.219,-0.9815,-0.8355,-0.879,-0.411,0.274,-0.07,-0.103,0.3605,0.3325
-0.8505,-0.6485,0.2015,0.7495,-0.5255,-0.2235,-0.9845,-0.841,-0.8855,-0.418,0.2735,-0.069,-0.0995,0.3555,0.3385
-0.8465,-0.6495,0.1965,0.748,-0.521,-0.226,-0.9865,-0.851,-0.896,-0.426,0.271,-0.0705,-0.099,0.3505,0.343
-0.8495,-0.6515,0.1975,0.7505,-0.523,-0.2265,-0.987,-0.858,-0.904,-0.432,0.27,-0.0685,-0.0995,0.3535,0.347
-0.845,-0.65,0.194,0.7475,-0.519,-0.228,-0.986,-0.865,-0.914,-0.44,0.2685,-0.0695,-0.1005,0.351,0.35
-0.8435,-0.6515,0.1915,0.7475,-0.5175,-0.2295,-0.9865,-0.874,-0.9235,-0.4485,0.266,-0.0695,-0.102,0.349,0.353
-0.8445,-0.6545,0.1895,0.7495,-0.517,-0.232,-0.989,-0.8815,-0.9315,-0.457,0.262,-0.07,-0.1035,0.349,0.3585
-0.841,-0.6545,0.186,0.7475,-0.513,-0.234,-0.993,-0.8905,-0.941,-0.466,0.2575,-0.072,-0.1065,0.3435,0.363
-0.8405,-0.6565,0.1835,0.7485,-0.512,-0.2365,-0.994,-0.898,-0.951,-0.4745,0.2565,-0.073,-0.1085,0.3395,0.3665
-0.841,-0.6585,0.182,0.75,-0.5115,-0.238,-0.993,-0.9035,-0.959,-0.4815,0.254,-0.075,-0.11,0.3395,0.369
-0.842,-0.6615,0.1805,0.752,-0.511,-0.24,-0.994,-0.9105,-0.968,-0.4905,0.251,-0.0755,-0.1115,0.34,0.373
-0.8385,-0.6635,0.175,0.751,-0.5065,-0.244,-0.9935,-0.9165,-0.976,-0.498,0.248,-0.077,-0.115,0.335,0.3735
-0.8365,-0.665,0.171,0.751,-0.5035,-0.2465,-0.9935,-0.9215,-0.982,-0.5045,0.246,-0.0765,-0.117,0.3305,0.3765
-0.8365,-0.6675,0.1685,0.752,-0.502,-0.249,-0.992,-0.927,-0.989,-0.511,0.242,-0.078,-0.119,0.328,0.3805
-0.8355,-0.67,0.165,0.7525,-0.5,-0.252,-0.991,-0.932,-0.996,-0.5175,0.2405,-0.079,-0.122,0.326,0.3815
-0.8315,-0.6705,0.1605,0.751,-0.4955,-0.2545,-0.992,-0.9365,-1.005,-0.5255,0.237,-0.0795,-0.1245,0.326,0.385
-0.826,-0.671,0.1545,0.7485,-0.49,-0.2575,-0.9905,-0.9415,-1.013,-0.5325,0.2325,-0.082,-0.128,0.323,0.3885
-0.826,-0.6745,0.151,0.75,-0.488,-0.261,-0.99,-0.9465,-1.019,-0.5395,0.232,-0.082,-0.13,0.32,0.3915
-0.8245,-0.676,0.148,0.7505,-0.4865,-0.2635,-0.991,-0.951,-1.026,-0.5465,0.229,-0.084,-0.1335,0.3205,0.3925
-0.8205,-0.6765,0.1435,0.749,-0.482,-0.266,-0.989,-0.955,-1.034,-0.5545,0.225,-0.0865,-0.1375,0.318,0.3955
-0.823,-0.6815,0.141,0.7525,-0.482,-0.2695,-0.9885,-0.9585,-1.038,-0.5595,0.225,-0.0855,-0.1395,0.3145,0.3975
-0.8255,-0.6855,0.1395,0.7555,-0.482,-0.272,-0.9865,-0.962,-1.041,-0.5625,0.224,-0.087,-0.142,0.311,0.3985
-0.82,-0.687,0.133,0.7535,-0.4765,-0.276,-0.9835,-0.965,-1.048,-0.5705,0.22,-0.0895,-0.1455,0.308,0.4
-0.8205,-0.691,0.129,0.7555,-0.4745,-0.28,-0.9815,-0.9665,-1.053,-0.5745,0.2165,-0.091,-0.1485,0.3045,0.402
-0.8195,-0.6915,0.127,0.7555,-0.473,-0.2815,-0.98,-0.9695,-1.058,-0.581,0.2125,-0.0945,-0.153,0.3005,0.4055
-0.8155,-0.691,0.1245,0.753,-0.47,-0.2825,-0.98,-0.975,-1.065,-0.591,0.209,-0.097,-0.1565,0.2985,0.407
-0.8155,-0.6945,0.12,0.755,-0.4675,-0.2865,-0.979,-0.9795,-1.071,-0.6005,0.206,-0.1,-0.159,0.2965,0.4065
-0.814,-0.6955,0.118,0.755,-0.466,-0.288,-0.9775,-0.9815,-1.075,-0.607,0.2035,-0.1015,-0.1625,0.2965,0.407
-0.8115,-0.697,0.114,0.7545,-0.4625,-0.291,-0.9775,-0.985,-1.08,-0.6105,0.199,-0.1035,-0.163,0.2925,0.409
-0.81,-0.6995,0.1105,0.7545,-0.46,-0.2935,-0.9745,-0.9865,-1.0815,-0.613,0.1975,-0.1045,-0.1625,0.286,0.41
-0.813,-0.7,0.1125,0.7565,-0.4625,-0.293,-0.9715,-0.985,-1.0835,-0.614,0.198,-0.1045,-0.1625,0.289,0.4105
-0.8105,-0.702,0.108,0.7565,-0.459,-0.296,-0.971,-0.988,-1.088,-0.619,0.1945,-0.1085,-0.166,0.2915,0.412
-0.8065,-0.701,0.105,0.754,-0.4555,-0.297,-0.9695,-0.99,-1.0925,-0.6235,0.193,-0.1115,-0.17,0.291,0.4125
-0.8035,-0.7,0.103,0.752,-0.453,-0.2975,-0.968,-0.993,-1.097,-0.6275,0.19,-0.1135,-0.172,0.2895,0.414
-0.803,-0.7045,0.0985,0.7535,-0.4505,-0.302,-0.967,-0.9955,-1.0985,-0.6315,0.189,-0.115,-0.176,0.288,0.4155
-0.8045,-0.703,0.1005,0.7535,-0.4525,-0.3005,-0.9665,-0.9955,-1.101,-0.6345,0.1875,-0.117,-0.178,0.291,0.4165
-0.7995,-0.699,0.1005,0.7495,-0.4495,-0.2985,-0.9655,-0.9965,-1.1045,-0.639,0.183,-0.121,-0.182,0.288,0.4165
-0.7955,-0.701,0.094,0.748,-0.4445,-0.3025,-0.963,-0.9975,-1.106,-0.6405,0.1815,-0.1245,-0.1865,0.283,0.418
-0.792,-0.6995,0.092,0.746,-0.442,-0.303,-0.962,-1.0,-1.107,-0.6425,0.18,-0.128,-0.1905,0.2845,0.4185
-0.792,-0.6995,0.0925,0.7455,-0.442,-0.3025,-0.96,-0.9995,-1.1085,-0.6455,0.1775,-0.1305,-0.1935,0.2805,0.4155
-0.7925,-0.701,0.091,0.747,-0.4415,-0.3045,-0.96,-0.999,-1.1095,-0.649,0.1745,-0.134,-0.196,0.2745,0.415
-0.791,-0.7015,0.089,0.7465,-0.44,-0.3055,-0.9565,-0.9985,-1.112,-0.651,0.1725,-0.1365,-0.199,0.2745,0.4155
-0.791,-0.7035,0.087,0.747,-0.439,-0.3075,-0.956,-1.002,-1.116,-0.6555,0.169,-0.1385,-0.198,0.273,0.419
-0.792,-0.7055,0.086,0.749,-0.439,-0.309,-0.9555,-1.0045,-1.119,-0.661,0.166,-0.1405,-0.1995,0.272,0.421
-0.792,-0.7055,0.0855,0.7485,-0.4385,-0.309,-0.955,-1.005,-1.1215,-0.662,0.166,-0.141,-0.2015,0.2745,0.42
-0.791,-0.7065,0.0835,0.749,-0.437,-0.311,-0.9565,-1.0085,-1.1245,-0.665,0.162,-0.144,-0.203,0.273,0.4215
-0.79,-0.709,0.08,0.7495,-0.4345,-0.314,-0.955,-1.009,-1.1265,-0.6675,0.16,-0.1455,-0.204,0.27,0.4225
-0.7885,-0.708,0.08,0.7485,-0.434,-0.313,-0.9545,-1.01,-1.1285,-0.6695,0.1585,-0.1475,-0.206,0.27,0.422
-0.788,-0.7085,0.079,0.7485,-0.4335,-0.314,-0.9545,-1.009,-1.13,-0.6725,0.156,-0.1505,-0.208,0.2735,0.4225
-0.7855,-0.7085,0.0765,0.7475,-0.431,-0.3155,-0.9515,-1.0075,-1.1295,-0.672,0.1575,-0.149,-0.208,0.2735,0.423
-0.781,-0.7045,0.076,0.743,-0.4285,-0.3135,-0.95,-1.0075,-1.1275,-0.67,0.161,-0.147,-0.2085,0.273,0.421
-0.7785,-0.703,0.075,0.741,-0.4265,-0.3135,-0.947,-1.006,-1.1275,-0.6695,0.1625,-0.147,-0.21,0.274,0.4195
-0.78,-0.706,0.0735,0.743,-0.4265,-0.3155,-0.946,-1.007,-1.1295,-0.672,0.16,-0.1465,-0.2115,0.2705,0.4205
-0.7805,-0.71,0.07,0.745,-0.425,-0.319,-0.9485,-1.0095,-1.1315,-0.676,0.158,-0.148,-0.2115,0.27,0.4225
-0.7815,-0.7125,0.069,0.747,-0.425,-0.321,-0.9485,-1.012,-1.133,-0.678,0.1565,-0.149,-0.2135,0.273,0.4215
-0.7825,-0.713,0.069,0.748,-0.4255,-0.321,-0.949,-1.012,-1.136,-0.68,0.1555,-0.149,-0.216,0.2715,0.421
-0.779,-0.713,0.066,0.746,-0.4225,-0.323,-0.9485,-1.0125,-1.139,-0.684,0.1525,-0.1515,-0.2195,0.2685,0.423
-0.7775,-0.7135,0.0635,0.7455,-0.4205,-0.324,-0.9475,-1.014,-1.138,-0.6855,0.152,-0.1505,-0.2195,0.2645,0.423
-0.7775,-0.7165,0.0605,0.747,-0.4185,-0.327,-0.948,-1.014,-1.139,-0.687,0.1515,-0.15,-0.2205,0.2595,0.423
-0.775,-0.717,0.0575,0.746,-0.4165,-0.329,-0.9465,-1.0135,-1.14,-0.687,0.1505,-0.151,-0.2225,0.26,0.422
-0.7755,-0.7165,0.058,0.746,-0.4165,-0.3285,-0.948,-1.013,-1.1375,-0.6865,0.1525,-0.1485,-0.221,0.2615,0.4205
-0.777,-0.72,0.0565,0.7485,-0.4165,-0.331,-0.9475,-1.012,-1.138,-0.6865,0.1515,-0.149,-0.2215,0.2605,0.42
-0.7765,-0.721,0.055,0.7485,-0.4155,-0.332,-0.947,-1.013,-1.14,-0.689,0.1505,-0.151,-0.2235,0.26,0.42
-0.776,-0.721,0.055,0.7485,-0.415,-0.332,-0.947,-1.014,-1.14,-0.6895,0.149,-0.1495,-0.2235,0.2625,0.4205
-0.7765,-0.7225,0.053,0.7495,-0.4145,-0.334,-0.946,-1.014,-1.1405,-0.688,0.1485,-0.149,-0.224,0.26,0.421
-0.776,-0.724,0.052,0.75,-0.4135,-0.335,-0.9445,-1.014,-1.14,-0.6895,0.149,-0.149,-0.224,0.2595,0.421
-0.7765,-0.724,0.052,0.75,-0.4135,-0.3355,-0.943,-1.013,-1.1385,-0.6885,0.15,-0.1475,-0.2235,0.26,0.419
-0.7775,-0.7225,0.054,0.75,-0.4155,-0.3335,-0.9435,-1.014,-1.138,-0.6875,0.1505,-0.147,-0.221,0.26,0.4215
-0.777,-0.7235,0.053,0.7505,-0.415,-0.3345,-0.9415,-1.013,-1.137,-0.6875,0.1505,-0.145,-0.219,0.261,0.4255
-0.7745,-0.723,0.051,0.7485,-0.4125,-0.3355,-0.9395,-1.0125,-1.1375,-0.6875,0.151,-0.145,-0.2205,0.264,0.427
-0.771,-0.7205,0.05,0.746,-0.41,-0.3345,-0.9375,-1.011,-1.138,-0.6875,0.151,-0.1445,-0.2215,0.265,0.4275
-0.768,-0.7175,0.0505,0.743,-0.409,-0.333,-0.937,-1.01,-1.139,-0.6885,0.15,-0.1445,-0.223,0.2635,0.427
-0.771,-0.718,0.053,0.7445,-0.412,-0.3315,-0.939,-1.0115,-1.14,-0.6895,0.1475,-0.146,-0.223,0.2665,0.4255
-0.7725,-0.7175,0.0545,0.745,-0.4135,-0.3305,-0.94,-1.0125,-1.1395,-0.6895,0.1475,-0.146,-0.2235,0.266,0.4245
-0.7685,-0.711,0.0565,0.74,-0.4125,-0.3265,-0.941,-1.0175,-1.143,-0.694,0.1445,-0.149,-0.226,0.2645,0.425
-0.7685,-0.713,0.055,0.7405,-0.4115,-0.328,-0.941,-1.018,-1.144,-0.696,0.141,-0.1495,-0.2265,0.2605,0.427
-0.7735,-0.7155,0.0575,0.7445,-0.4155,-0.328,-0.9415,-1.0145,-1.143,-0.693,0.143,-0.148,-0.223,0.2585,0.4275
-0.778,-0.7175,0.0605,0.7475,-0.419,-0.3275,-0.94,-1.014,-1.14,-0.6915,0.144,-0.146,-0.22,0.2625,0.4255
-0.777,-0.7195,0.0565,0.748,-0.4165,-0.3305,-0.9395,-1.013,-1.14,-0.6905,0.1435,-0.145,-0.2195,0.26,0.424
-0.7765,-0.719,0.057,0.748,-0.4165,-0.3305,-0.9405,-1.013,-1.1405,-0.691,0.1435,-0.145,-0.2185,0.2585,0.4245
-0.7775,-0.722,0.055,0.75,-0.416,-0.333,-0.941,-1.0125,-1.139,-0.689,0.1455,-0.143,-0.216,0.258,0.425
-0.7785,-0.7255,0.0525,0.752,-0.4155,-0.3355,-0.941,-1.013,-1.14,-0.6885,0.146,-0.1425,-0.215,0.259,0.4255
-0.781,-0.7265,0.054,0.754,-0.4175,-0.3355,-0.9415,-1.012,-1.14,-0.6895,0.145,-0.144,-0.217,0.259,0.4245
-0.779,-0.7265,0.052,0.753,-0.4155,-0.3365,-0.9425,-1.013,-1.1415,-0.6905,0.144,-0.1455,-0.219,0.254,0.4235
-0.7765,-0.7275,0.049,0.752,-0.4125,-0.3385,-0.9415,-1.0145,-1.1425,-0.6915,0.1405,-0.146,-0.221,0.2535,0.4235
-0.777,-0.728,0.0485,0.7525,-0.4125,-0.339,-0.9395,-1.012,-1.1415,-0.6935,0.1375,-0.148,-0.224,0.259,0.4235
-0.778,-0.73,0.0475,0.754,-0.4125,-0.3405,-0.938,-1.012,-1.142,-0.694,0.1345,-0.151,-0.226,0.2585,0.4235
-0.7775,-0.73,0.0475,0.7535,-0.4125,-0.3405,-0.9385,-1.0105,-1.1415,-0.6915,0.137,-0.1475,-0.2245,0.2525,0.4245
-0.7785,-0.7275,0.051,0.753,-0.4145,-0.3375,-0.9395,-1.0105,-1.14,-0.691,0.14,-0.146,-0.223,0.254,0.425
-0.7815,-0.725,0.056,0.753,-0.4185,-0.334,-0.939,-1.011,-1.14,-0.692,0.14,-0.1455,-0.222,0.2585,0.425
-0.779,-0.7225,0.0565,0.751,-0.4175,-0.3325,-0.939,-1.0115,-1.142,-0.692,0.139,-0.145,-0.222,0.259,0.4245
-0.777,-0.7215,0.0555,0.749,-0.4155,-0.3325,-0.9395,-1.0125,-1.1415,-0.693,0.137,-0.1465,-0.2225,0.2565,0.4235
-0.779,-0.721,0.057,0.75,-0.418,-0.331,-0.9385,-1.0115,-1.141,-0.693,0.1375,-0.1455,-0.2215,0.2575,0.4235
-0.7805,-0.722,0.058,0.751,-0.419,-0.3315,-0.939,-1.011,-1.1395,-0.6925,0.1375,-0.145,-0.2205,0.26,0.4235
-0.779,-0.7225,0.0555,0.751,-0.417,-0.333,-0.9375,-1.011,-1.14,-0.693,0.1375,-0.146,-0.2225,0.2555,0.422
-0.775,-0.722,0.0525,0.7485,-0.4135,-0.334,-0.9365,-1.0105,-1.1415,-0.692,0.137,-0.1465,-0.2235,0.253,0.421
-0.7745,-0.723,0.051,0.749,-0.4125,-0.3355,-0.9375,-1.01,-1.14,-0.6915,0.138,-0.1455,-0.222,0.257,0.422
-0.7745,-0.7245,0.05,0.7495,-0.412,-0.336,-0.9365,-1.01,-1.1385,-0.6915,0.139,-0.1435,-0.222,0.2575,0.422
-0.7685,-0.722,0.046,0.7455,-0.407,-0.3375,-0.935,-1.011,-1.139,-0.6915,0.1375,-0.145,-0.224,0.252,0.422
-0.765,-0.722,0.0425,0.744,-0.4035,-0.339,-0.936,-1.0105,-1.14,-0.6925,0.1365,-0.1465,-0.2245,0.248,0.423
-0.766,-0.722,0.044,0.744,-0.405,-0.3385,-0.937,-1.0105,-1.139,-0.6925,0.1385,-0.1455,-0.2235,0.247,0.4235
-0.7695,-0.723,0.046,0.746,-0.4075,-0.338,-0.936,-1.009,-1.138,-0.691,0.1385,-0.145,-0.2235,0.25,0.4245
-0.7705,-0.724,0.046,0.7475,-0.408,-0.3385,-0.936,-1.0095,-1.139,-0.6915,0.138,-0.145,-0.2235,0.251,0.4255
-0.768,-0.7225,0.0445,0.7455,-0.406,-0.3385,-0.935,-1.009,-1.139,-0.6915,0.1375,-0.1445,-0.224,0.254,0.4275
-0.768,-0.724,0.0435,0.746,-0.4055,-0.3395,-0.9335,-1.0065,-1.138,-0.691,0.139,-0.1445,-0.2245,0.255,0.4265
-0.7685,-0.7245,0.0435,0.747,-0.406,-0.34,-0.9355,-1.007,-1.138,-0.692,0.138,-0.1455,-0.2255,0.2545,0.4235
-0.77,-0.726,0.0435,0.7485,-0.4065,-0.341,-0.9365,-1.009,-1.138,-0.691,0.1375,-0.146,-0.2235,0.2535,0.424
-0.7705,-0.729,0.041,0.75,-0.406,-0.343,-0.936,-1.009,-1.1365,-0.69,0.1405,-0.1455,-0.221,0.2495,0.4245
-0.771,-0.73,0.041,0.7505,-0.406,-0.344,-0.936,-1.008,-1.1355,-0.6895,0.1395,-0.1455,-0.222,0.252,0.424
-0.7705,-0.7305,0.0395,0.75,-0.4045,-0.3445,-0.9335,-1.0055,-1.134,-0.6895,0.14,-0.145,-0.2235,0.2515,0.4245
-0.7675,-0.7305,0.0365,0.749,-0.4015,-0.3465,-0.932,-1.0035,-1.1345,-0.6905,0.1405,-0.146,-0.225,0.2495,0.424
-0.77,-0.733,0.0365,0.7515,-0.403,-0.3475,-0.9345,-1.005,-1.136,-0.691,0.1395,-0.1465,-0.224,0.25,0.424
-0.775,-0.734,0.0405,0.7545,-0.4075,-0.346,-0.935,-1.0065,-1.1355,-0.6905,0.1395,-0.146,-0.223,0.2515,0.425
-0.775,-0.7325,0.042,0.7535,-0.4085,-0.3445,-0.9345,-1.0075,-1.1355,-0.6905,0.1405,-0.1455,-0.2235,0.254,0.4255
-0.7735,-0.7315,0.0415,0.7525,-0.4075,-0.3445,-0.9335,-1.0045,-1.134,-0.689,0.1425,-0.145,-0.2225,0.2535,0.424
-0.772,-0.732,0.0395,0.752,-0.4055,-0.3455,-0.932,-1.002,-1.1335,-0.688,0.1415,-0.1445,-0.223,0.2485,0.4235
-0.7685,-0.73,0.038,0.749,-0.403,-0.345,-0.9305,-1.0015,-1.1345,-0.6895,0.1405,-0.145,-0.2245,0.2455,0.424
-0.7675,-0.729,0.0375,0.748,-0.402,-0.345,-0.93,-1.002,-1.1345,-0.6895,0.1405,-0.146,-0.223,0.2495,0.4255
-0.767,-0.728,0.0385,0.7475,-0.4025,-0.344,-0.933,-1.005,-1.137,-0.691,0.1395,-0.147,-0.2235,0.2505,0.425
-0.768,-0.726,0.041,0.747,-0.404,-0.342,-0.931,-1.004,-1.1365,-0.6915,0.138,-0.1475,-0.2245,0.25,0.4235
-0.768,-0.7275,0.04,0.748,-0.4035,-0.343,-0.9285,-1.0025,-1.1345,-0.6915,0.1365,-0.146,-0.2235,0.2495,0.4245
-0.769,-0.7285,0.0405,0.7485,-0.4045,-0.343,-0.9295,-1.0015,-1.134,-0.691,0.1365,-0.1465,-0.224,0.2485,0.4255
-0.7695,-0.7275,0.041,0.7485,-0.405,-0.3425,-0.9295,-1.0015,-1.1335,-0.692,0.136,-0.148,-0.225,0.247,0.425
-0.7655,-0.724,0.041,0.7445,-0.403,-0.341,-0.929,-1.0025,-1.1345,-0.6925,0.1355,-0.1495,-0.2265,0.246,0.4235
-0.7635,-0.7215,0.041,0.7425,-0.402,-0.3395,-0.9265,-1.0015,-1.135,-0.6925,0.1345,-0.151,-0.2285,0.245,0.4215
-0.7625,-0.7225,0.039,0.7425,-0.4005,-0.341,-0.928,-1.0015,-1.1345,-0.692,0.1345,-0.15,-0.227,0.2455,0.4235
-0.7635,-0.721,0.0415,0.7425,-0.402,-0.3395,-0.931,-1.0005,-1.1325,-0.6905,0.1365,-0.1505,-0.2245,0.2495,0.426
-0.764,-0.7185,0.045,0.7415,-0.4045,-0.336,-0.9305,-0.9995,-1.132,-0.692,0.135,-0.151,-0.2235,0.252,0.4255
-0.7635,-0.718,0.0455,0.741,-0.4045,-0.3355,-0.9285,-0.999,-1.132,-0.691,0.136,-0.151,-0.2235,0.2525,0.425
-0.7645,-0.7195,0.044,0.742,-0.404,-0.337,-0.9275,-0.997,-1.13,-0.691,0.1365,-0.152,-0.2235,0.251,0.4235
-0.765,-0.722,0.0425,0.7435,-0.4035,-0.339,-0.929,-0.998,-1.131,-0.6915,0.1345,-0.154,-0.2255,0.249,0.424
-0.7645,-0.7225,0.0415,0.744,-0.403,-0.3395,-0.931,-0.999,-1.1325,-0.693,0.1345,-0.1545,-0.227,0.249,0.4235
-0.7675,-0.724,0.043,0.7455,-0.405,-0.34,-0.93,-0.999,-1.1325,-0.693,0.1335,-0.154,-0.227,0.2525,0.4235
-0.7675,-0.7245,0.042,0.746,-0.4045,-0.3405,-0.93,-0.999,-1.1325,-0.6915,0.1315,-0.1565,-0.228,0.2535,0.4225
-0.763,-0.7205,0.042,0.742,-0.402,-0.3385,-0.9315,-0.9995,-1.1345,-0.6945,0.1295,-0.1575,-0.229,0.251,0.422
-0.762,-0.7205,0.041,0.741,-0.4015,-0.339,-0.933,-0.9995,-1.134,-0.6945,0.1275,-0.159,-0.2295,0.2505,0.4235
-0.7655,-0.7235,0.0415,0.7445,-0.4035,-0.34,-0.932,-0.9975,-1.133,-0.694,0.128,-0.158,-0.229,0.253,0.423
-0.7705,-0.7245,0.0455,0.7475,-0.4075,-0.3385,-0.9325,-0.9975,-1.135,-0.6965,0.127,-0.1585,-0.23,0.2565,0.424
-0.7695,-0.7245,0.0445,0.747,-0.4065,-0.3395,-0.932,-0.9995,-1.136,-0.6975,0.126,-0.1615,-0.232,0.2575,0.424
-0.769,-0.7235,0.045,0.7465,-0.407,-0.3385,-0.9315,-0.9995,-1.1355,-0.6965,0.1265,-0.161,-0.231,0.258,0.423
-0.765,-0.7195,0.045,0.7425,-0.4045,-0.3365,-0.933,-0.9985,-1.1355,-0.6965,0.125,-0.1635,-0.234,0.2545,0.4225
-0.7605,-0.7175,0.0425,0.739,-0.4015,-0.3365,-0.9305,-0.998,-1.1345,-0.697,0.1235,-0.167,-0.238,0.248,0.422
-0.764,-0.7195,0.044,0.742,-0.404,-0.337,-0.93,-0.998,-1.134,-0.6985,0.122,-0.1685,-0.238,0.2475,0.423
-0.7675,-0.7215,0.045,0.7445,-0.406,-0.3375,-0.93,-0.9975,-1.1335,-0.697,0.1235,-0.1685,-0.238,0.2495,0.421
-0.7685,-0.7215,0.0465,0.745,-0.407,-0.337,-0.93,-0.9975,-1.1335,-0.698,0.123,-0.1695,-0.238,0.253,0.42
-0.767,-0.719,0.0475,0.743,-0.407,-0.335,-0.9305,-0.998,-1.1335,-0.7,0.1225,-0.1695,-0.2385,0.256,0.4195
-0.765,-0.7185,0.046,0.742,-0.4055,-0.3355,-0.9285,-0.9955,-1.1325,-0.6975,0.1245,-0.1675,-0.2385,0.257,0.4185
-0.7635,-0.718,0.0455,0.741,-0.404,-0.3355,-0.9255,-0.9935,-1.131,-0.697,0.124,-0.166,-0.238,0.258,0.4195
-0.764,-0.718,0.0455,0.741,-0.4045,-0.3355,-0.9235,-0.994,-1.1305,-0.6965,0.1255,-0.1645,-0.237,0.2555,0.42
-0.7635,-0.7185,0.0445,0.7415,-0.404,-0.336,-0.9235,-0.9945,-1.13,-0.6965,0.124,-0.1645,-0.238,0.2515,0.4195
-0.764,-0.7165,0.047,0.74,-0.405,-0.334,-0.922,-0.9935,-1.1305,-0.6975,0.1235,-0.165,-0.2385,0.249,0.418
-0.763,-0.7135,0.049,0.7385,-0.4055,-0.3315,-0.9215,-0.9925,-1.13,-0.698,0.1255,-0.1655,-0.238,0.254,0.4165
-0.7605,-0.708,0.0515,0.7345,-0.406,-0.3275,-0.921,-0.992,-1.1285,-0.698,0.124,-0.166,-0.2395,0.264,0.4155
-0.763,-0.704,0.0585,0.733,-0.4105,-0.322,-0.9205,-0.992,-1.1295,-0.698,0.123,-0.1655,-0.2395,0.2675,0.415
-0.7635,-0.7015,0.061,0.7325,-0.412,-0.3195,-0.919,-0.9915,-1.127,-0.697,0.125,-0.164,-0.238,0.268,0.4135
-0.763,-0.6945,0.0685,0.7285,-0.4155,-0.3125,-0.916,-0.9865,-1.122,-0.6915,0.1275,-0.16,-0.2375,0.277,0.4105
-0.763,-0.6895,0.0735,0.726,-0.418,-0.307,-0.915,-0.983,-1.1185,-0.688,0.132,-0.1595,-0.2365,0.2805,0.409
-0.761,-0.6865,0.0745,0.7235,-0.4175,-0.305,-0.914,-0.983,-1.1165,-0.686,0.1335,-0.1585,-0.238,0.279,0.4055
-0.7635,-0.6825,0.08,0.723,-0.4215,-0.3005,-0.9095,-0.98,-1.1135,-0.684,0.136,-0.155,-0.237,0.285,0.402
-0.7645,-0.6815,0.0825,0.723,-0.423,-0.299,-0.91,-0.9805,-1.1145,-0.685,0.1365,-0.156,-0.2375,0.286,0.402
-0.7665,-0.6795,0.0865,0.723,-0.426,-0.296,-0.9145,-0.9825,-1.1155,-0.685,0.1365,-0.1555,-0.2375,0.286,0.402
-0.771,-0.6785,0.092,0.7245,-0.431,-0.2925,-0.9175,-0.9805,-1.1125,-0.68,0.142,-0.151,-0.234,0.287,0.3985
-0.7745,-0.6745,0.099,0.7245,-0.4365,-0.287,-0.92,-0.98,-1.1095,-0.6755,0.148,-0.147,-0.2295,0.293,0.397
-0.7775,-0.669,0.1075,0.7235,-0.4425,-0.28,-0.922,-0.9815,-1.107,-0.6735,0.152,-0.1445,-0.2275,0.302,0.3955
-0.779,-0.665,0.114,0.722,-0.446,-0.275,-0.924,-0.982,-1.107,-0.672,0.1545,-0.1405,-0.2265,0.3095,0.394
-0.7815,-0.661,0.1195,0.7215,-0.4505,-0.27,-0.9215,-0.9785,-1.103,-0.6685,0.157,-0.1375,-0.2235,0.315,0.3925
-0.78,-0.6575,0.122,0.719,-0.451,-0.267,-0.9175,-0.9745,-1.1005,-0.6675,0.156,-0.1395,-0.225,0.3175,0.3895
-0.7795,-0.6545,0.125,0.717,-0.452,-0.264,-0.9145,-0.9735,-1.1005,-0.669,0.154,-0.141,-0.226,0.318,0.387
-0.7815,-0.6515,0.13,0.7165,-0.4555,-0.26,-0.913,-0.972,-1.098,-0.667,0.155,-0.1395,-0.224,0.318,0.385
-0.785,-0.647,0.1375,0.716,-0.461,-0.2545,-0.9105,-0.9695,-1.094,-0.6645,0.158,-0.137,-0.2225,0.3215,0.3815
-0.7895,-0.6455,0.1435,0.7175,-0.466,-0.251,-0.9055,-0.9645,-1.0885,-0.659,0.1605,-0.135,-0.219,0.327,0.378
-0.788,-0.642,0.145,0.715,-0.466,-0.248,-0.9055,-0.963,-1.087,-0.658,0.1605,-0.133,-0.2175,0.3305,0.377
-0.788,-0.64,0.1475,0.7135,-0.4675,-0.2455,-0.905,-0.9625,-1.0865,-0.657,0.162,-0.132,-0.2165,0.3345,0.3755
-0.7915,-0.6415,0.149,0.7165,-0.47,-0.246,-0.901,-0.9565,-1.0815,-0.652,0.164,-0.1315,-0.2135,0.334,0.372
-0.794,-0.644,0.1495,0.719,-0.4715,-0.247,-0.898,-0.953,-1.0765,-0.6495,0.1665,-0.132,-0.211,0.3255,0.368
-0.7895,-0.6455,0.1435,0.7175,-0.4665,-0.251,-0.8975,-0.9505,-1.0755,-0.6495,0.1665,-0.133,-0.21,0.315,0.369
-0.7895,-0.648,0.141,0.719,-0.465,-0.2535,-0.8955,-0.946,-1.0735,-0.648,0.1665,-0.132,-0.2075,0.312,0.3685
-0.795,-0.65,0.1445,0.722,-0.4695,-0.2525,-0.8935,-0.942,-1.0685,-0.6445,0.1685,-0.1295,-0.204,0.3175,0.3655
-0.7975,-0.651,0.1465,0.724,-0.472,-0.252,-0.895,-0.9395,-1.065,-0.643,0.1705,-0.1275,-0.2,0.319,0.3645
-0.8015,-0.6555,0.1455,0.7285,-0.473,-0.2545,-0.896,-0.934,-1.0605,-0.6415,0.174,-0.1245,-0.1955,0.315,0.3625
-0.7995,-0.6565,0.1425,0.728,-0.471,-0.2565,-0.8945,-0.931,-1.058,-0.641,0.1755,-0.1225,-0.193,0.3105,0.3615
-0.803,-0.659,0.1435,0.731,-0.473,-0.257,-0.9005,-0.933,-1.0565,-0.639,0.178,-0.12,-0.189,0.307,0.363
-0.805,-0.657,0.147,0.731,-0.476,-0.2545,-0.9055,-0.9355,-1.0565,-0.638,0.1785,-0.118,-0.1875,0.3085,0.364
-0.803,-0.6465,0.1565,0.725,-0.4795,-0.2445,-0.902,-0.9365,-1.057,-0.635,0.1795,-0.1165,-0.1885,0.3175,0.3595
-0.8015,-0.6415,0.1595,0.7215,-0.4805,-0.2405,-0.9035,-0.9375,-1.056,-0.6315,0.182,-0.114,-0.188,0.3215,0.358
-0.8055,-0.6385,0.1665,0.722,-0.486,-0.2355,-0.9035,-0.9355,-1.052,-0.628,0.185,-0.1105,-0.1825,0.3305,0.3575
-0.813,-0.6365,0.176,0.725,-0.4945,-0.23,-0.9065,-0.9345,-1.051,-0.6245,0.188,-0.1075,-0.1765,0.3365,0.359
-0.8115,-0.6385,0.173,0.725,-0.492,-0.2325,-0.915,-0.9405,-1.0555,-0.627,0.186,-0.1055,-0.176,0.3325,0.3655
-0.8095,-0.643,0.166,0.726,-0.4875,-0.2385,-0.9245,-0.947,-1.061,-0.6295,0.1845,-0.1065,-0.177,0.3305,0.3725
-0.808,-0.6465,0.161,0.727,-0.4845,-0.2425,-0.9325,-0.9535,-1.067,-0.6325,0.1835,-0.107,-0.177,0.328,0.3765
-0.8075,-0.6455,0.1615,0.7265,-0.484,-0.2415,-0.935,-0.9535,-1.068,-0.633,0.1835,-0.106,-0.1745,0.324,0.377
-0.81,-0.6475,0.162,0.7285,-0.4855,-0.2425,-0.9395,-0.9545,-1.0675,-0.633,0.184,-0.106,-0.1715,0.319,0.379
-0.813,-0.648,0.1645,0.7305,-0.4885,-0.2415,-0.945,-0.961,-1.071,-0.636,0.183,-0.104,-0.168,0.321,0.385
-0.8125,-0.651,0.161,0.732,-0.4865,-0.2445,-0.9535,-0.9695,-1.079,-0.641,0.1815,-0.102,-0.1665,0.3175,0.3955
-0.81,-0.6585,0.151,0.734,-0.48,-0.253,-0.963,-0.9825,-1.0905,-0.6505,0.1785,-0.1055,-0.1685,0.3105,0.4055
-0.8085,-0.667,0.141,0.738,-0.4745,-0.2625,-0.9695,-0.987,-1.097,-0.655,0.176,-0.1065,-0.168,0.301,0.4145
-0.8095,-0.6715,0.138,0.7405,-0.4735,-0.266,-0.9745,-0.9905,-1.1015,-0.659,0.1745,-0.107,-0.165,0.2955,0.423
