i,ii,iii,avr,avl,avf,v1,v2,v3,v4,v5,v6,vx,vy,vz
-1.8845,-0.4945,1.3905,1.1895,-1.6375,0.448,0.526,0.438,-0.137,-0.661,-0.586,-0.68,-0.182,-0.544,-0.339
-1.885,-0.488,1.3975,1.1865,-1.6415,0.455,0.5335,0.4455,-0.1295,-0.656,-0.58,-0.676,-0.18,-0.55,-0.338
-1.875,-0.48,1.395,1.1775,-1.635,0.4575,0.5365,0.4515,-0.1255,-0.6515,-0.577,-0.6735,-0.1765,-0.552,-0.3375
-1.867,-0.475,1.392,1.171,-1.6295,0.4585,0.5395,0.454,-0.123,-0.651,-0.5755,-0.672,-0.1755,-0.5555,-0.3365
-1.873,-0.483,1.39,1.178,-1.6315,0.4535,0.5385,0.452,-0.126,-0.6525,-0.5785,-0.6755,-0.1765,-0.556,-0.337
-1.877,-0.487,1.3905,1.182,-1.6335,0.4515,0.5345,0.448,-0.129,-0.6555,-0.5815,-0.6775,-0.1785,-0.5535,-0.337
-1.879,-0.4875,1.391,1.1835,-1.635,0.4515,0.5345,0.448,-0.1275,-0.656,-0.583,-0.6795,-0.184,-0.5515,-0.3375
-1.879,-0.4875,1.391,1.1835,-1.635,0.452,0.538,0.4535,-0.1245,-0.654,-0.582,-0.6785,-0.1875,-0.5545,-0.3405
-1.871,-0.484,1.387,1.1775,-1.629,0.4515,0.541,0.459,-0.119,-0.65,-0.578,-0.6745,-0.189,-0.5585,-0.342
-1.8655,-0.4865,1.379,1.1755,-1.622,0.4465,0.5425,0.458,-0.1165,-0.649,-0.577,-0.6755,-0.191,-0.5595,-0.3435
-1.8665,-0.4905,1.376,1.1785,-1.6215,0.443,0.54,0.455,-0.121,-0.6535,-0.581,-0.679,-0.189,-0.5605,-0.344
-1.8715,-0.4925,1.379,1.182,-1.625,0.4435,0.538,0.455,-0.122,-0.6545,-0.5815,-0.6805,-0.188,-0.565,-0.3435
-1.8765,-0.492,1.3845,1.184,-1.6305,0.446,0.5385,0.457,-0.12,-0.654,-0.581,-0.6805,-0.1905,-0.566,-0.343
-1.8825,-0.4975,1.3855,1.19,-1.634,0.444,0.5435,0.4565,-0.1205,-0.6555,-0.584,-0.683,-0.193,-0.568,-0.343
-1.888,-0.5095,1.3785,1.1985,-1.633,0.4345,0.5475,0.457,-0.12,-0.655,-0.5845,-0.682,-0.192,-0.574,-0.3445
-1.892,-0.518,1.374,1.205,-1.633,0.428,0.543,0.4575,-0.1205,-0.657,-0.586,-0.6835,-0.19,-0.573,-0.3445
-1.8885,-0.512,1.3765,1.2005,-1.6325,0.432,0.541,0.4555,-0.122,-0.66,-0.59,-0.6865,-0.1905,-0.5685,-0.3455
-1.8835,-0.5055,1.378,1.194,-1.631,0.4365,0.542,0.4565,-0.1225,-0.6585,-0.591,-0.6865,-0.189,-0.565,-0.346
-1.8815,-0.5015,1.38,1.1915,-1.631,0.4395,0.5415,0.4585,-0.1205,-0.6585,-0.589,-0.6855,-0.1905,-0.5655,-0.3455
-1.8815,-0.5005,1.381,1.191,-1.6315,0.4405,0.5435,0.459,-0.1205,-0.658,-0.588,-0.685,-0.1915,-0.5685,-0.3445
-1.8825,-0.5045,1.3785,1.1935,-1.6305,0.437,0.543,0.46,-0.122,-0.6595,-0.589,-0.685,-0.19,-0.573,-0.343
-1.888,-0.512,1.376,1.2,-1.632,0.432,0.543,0.46,-0.1225,-0.6615,-0.59,-0.686,-0.188,-0.5765,-0.3425
-1.895,-0.5225,1.372,1.209,-1.6335,0.4245,0.5435,0.456,-0.126,-0.6635,-0.5935,-0.688,-0.186,-0.581,-0.3425
-1.897,-0.528,1.369,1.2125,-1.633,0.4205,0.54,0.4565,-0.129,-0.6665,-0.596,-0.689,-0.183,-0.581,-0.3415
-1.8965,-0.53,1.3665,1.2135,-1.6315,0.418,0.5405,0.4575,-0.1285,-0.668,-0.5955,-0.689,-0.181,-0.5835,-0.3385
-1.905,-0.5375,1.3675,1.221,-1.636,0.415,0.5375,0.455,-0.131,-0.672,-0.599,-0.692,-0.1795,-0.587,-0.3375
-1.9155,-0.5495,1.3655,1.2325,-1.6405,0.408,0.534,0.4485,-0.137,-0.678,-0.6045,-0.698,-0.177,-0.5875,-0.338
-1.9095,-0.544,1.3655,1.227,-1.6375,0.4105,0.537,0.4485,-0.1355,-0.678,-0.602,-0.697,-0.178,-0.5875,-0.336
-1.909,-0.5365,1.3725,1.2225,-1.6405,0.418,0.536,0.4535,-0.1335,-0.6775,-0.6015,-0.695,-0.1795,-0.5835,-0.336
-1.9125,-0.538,1.3745,1.225,-1.6435,0.4185,0.533,0.4515,-0.1375,-0.6805,-0.604,-0.698,-0.183,-0.581,-0.336
-1.899,-0.5275,1.371,1.213,-1.635,0.422,0.5385,0.4545,-0.1325,-0.676,-0.599,-0.6935,-0.1855,-0.5845,-0.336
-1.881,-0.5165,1.3645,1.1985,-1.6225,0.424,0.543,0.461,-0.126,-0.669,-0.5945,-0.6875,-0.186,-0.59,-0.334
-1.8785,-0.5125,1.3655,1.1955,-1.622,0.4265,0.55,0.4615,-0.1265,-0.669,-0.5935,-0.686,-0.1905,-0.5865,-0.3365
-1.873,-0.507,1.366,1.19,-1.6195,0.4295,0.5505,0.4615,-0.1255,-0.6685,-0.5915,-0.6845,-0.193,-0.582,-0.3375
-1.864,-0.499,1.365,1.1815,-1.6145,0.433,0.5445,0.4645,-0.122,-0.6655,-0.5885,-0.6825,-0.1945,-0.5875,-0.3375
-1.869,-0.502,1.367,1.1855,-1.618,0.4325,0.5475,0.4615,-0.124,-0.6665,-0.589,-0.6835,-0.195,-0.5915,-0.3385
-1.8715,-0.5085,1.3635,1.19,-1.6175,0.4275,0.5435,0.4585,-0.127,-0.671,-0.592,-0.6855,-0.195,-0.591,-0.338
-1.8725,-0.508,1.3645,1.19,-1.6185,0.4285,0.544,0.4585,-0.127,-0.6715,-0.591,-0.686,-0.195,-0.5895,-0.337
-1.883,-0.517,1.3665,1.2,-1.6245,0.4245,0.5495,0.4565,-0.1295,-0.6715,-0.593,-0.6875,-0.1945,-0.5925,-0.338
-1.894,-0.53,1.364,1.212,-1.629,0.417,0.547,0.4525,-0.136,-0.6765,-0.597,-0.6925,-0.197,-0.595,-0.3395
-1.878,-0.5195,1.3585,1.1985,-1.618,0.4195,0.5475,0.452,-0.1345,-0.675,-0.5935,-0.69,-0.194,-0.594,-0.3375
-1.8685,-0.51,1.3585,1.189,-1.6135,0.424,0.55,0.4585,-0.1285,-0.6705,-0.5865,-0.6845,-0.191,-0.599,-0.3395
-1.881,-0.5205,1.3605,1.201,-1.621,0.42,0.547,0.454,-0.1325,-0.6745,-0.59,-0.6875,-0.192,-0.6005,-0.342
-1.884,-0.524,1.36,1.204,-1.622,0.418,0.542,0.4465,-0.1385,-0.6795,-0.5935,-0.691,-0.19,-0.5975,-0.3415
-1.88,-0.5205,1.359,1.2005,-1.6195,0.419,0.542,0.446,-0.1425,-0.6815,-0.5925,-0.6905,-0.1885,-0.5975,-0.3415
-1.8835,-0.524,1.3595,1.2035,-1.6215,0.4175,0.538,0.439,-0.1455,-0.6825,-0.596,-0.6925,-0.1925,-0.5965,-0.3395
-1.893,-0.531,1.3625,1.212,-1.628,0.416,0.536,0.436,-0.1475,-0.686,-0.5975,-0.695,-0.1965,-0.594,-0.3375
-1.8925,-0.531,1.3615,1.212,-1.627,0.4155,0.5395,0.4375,-0.1485,-0.6855,-0.595,-0.6935,-0.1945,-0.5935,-0.3355
-1.8895,-0.528,1.362,1.2085,-1.626,0.417,0.5375,0.4325,-0.151,-0.686,-0.597,-0.6945,-0.1945,-0.592,-0.3355
-1.889,-0.5275,1.361,1.208,-1.625,0.417,0.537,0.4315,-0.1535,-0.688,-0.598,-0.6945,-0.195,-0.591,-0.3335
-1.895,-0.533,1.362,1.214,-1.6285,0.4145,0.535,0.4295,-0.1555,-0.69,-0.5995,-0.6965,-0.197,-0.5885,-0.331
-1.8975,-0.5365,1.361,1.217,-1.629,0.412,0.532,0.424,-0.1585,-0.6915,-0.601,-0.6965,-0.197,-0.5865,-0.3285
-1.8915,-0.5315,1.3605,1.2115,-1.626,0.4145,0.533,0.423,-0.159,-0.6885,-0.5985,-0.6935,-0.195,-0.5865,-0.3275
-1.8905,-0.532,1.358,1.211,-1.624,0.413,0.5305,0.42,-0.162,-0.691,-0.6,-0.695,-0.1945,-0.5845,-0.3275
-1.893,-0.535,1.358,1.214,-1.6255,0.4115,0.528,0.416,-0.1655,-0.6925,-0.601,-0.694,-0.193,-0.585,-0.3245
-1.896,-0.533,1.363,1.215,-1.6295,0.415,0.527,0.4135,-0.167,-0.693,-0.6005,-0.695,-0.1925,-0.5835,-0.32
-1.8915,-0.5305,1.361,1.211,-1.6265,0.4155,0.527,0.413,-0.168,-0.692,-0.599,-0.6935,-0.189,-0.581,-0.319
-1.883,-0.5245,1.358,1.204,-1.6205,0.417,0.526,0.41,-0.169,-0.689,-0.5955,-0.6925,-0.1895,-0.579,-0.32
-1.876,-0.5175,1.359,1.1965,-1.6175,0.421,0.524,0.408,-0.1705,-0.6865,-0.5915,-0.69,-0.1925,-0.578,-0.317
-1.8775,-0.516,1.3615,1.1965,-1.6195,0.423,0.525,0.408,-0.169,-0.683,-0.588,-0.6875,-0.194,-0.581,-0.317
-1.8755,-0.516,1.36,1.196,-1.6175,0.422,0.5295,0.4075,-0.1685,-0.6825,-0.585,-0.6865,-0.193,-0.5825,-0.319
-1.8705,-0.512,1.3585,1.191,-1.6145,0.4235,0.531,0.4075,-0.169,-0.68,-0.5825,-0.6825,-0.1915,-0.579,-0.3175
-1.875,-0.5135,1.361,1.1945,-1.618,0.4235,0.528,0.405,-0.171,-0.6795,-0.582,-0.683,-0.194,-0.576,-0.32
-1.883,-0.5155,1.3675,1.199,-1.625,0.426,0.525,0.399,-0.176,-0.6825,-0.583,-0.6845,-0.1975,-0.578,-0.323
-1.885,-0.5175,1.3675,1.201,-1.626,0.425,0.5175,0.389,-0.1825,-0.687,-0.587,-0.6875,-0.196,-0.575,-0.322
-1.8975,-0.5315,1.3655,1.2145,-1.6315,0.417,0.5075,0.384,-0.187,-0.6905,-0.5895,-0.6915,-0.195,-0.572,-0.323
-1.9,-0.534,1.366,1.217,-1.633,0.416,0.508,0.3835,-0.1875,-0.6895,-0.588,-0.6885,-0.194,-0.5725,-0.323
-1.884,-0.5225,1.3615,1.2035,-1.623,0.4195,0.5095,0.3825,-0.187,-0.6885,-0.585,-0.6865,-0.1925,-0.572,-0.3215
-1.8825,-0.522,1.3605,1.202,-1.6215,0.419,0.508,0.3785,-0.191,-0.6915,-0.5875,-0.688,-0.192,-0.572,-0.3195
-1.881,-0.5255,1.356,1.203,-1.6185,0.4155,0.5095,0.3775,-0.1925,-0.6915,-0.589,-0.6875,-0.188,-0.5715,-0.317
-1.8795,-0.5255,1.3545,1.2025,-1.617,0.4145,0.5085,0.374,-0.1935,-0.692,-0.5875,-0.6885,-0.186,-0.57,-0.317
-1.884,-0.5285,1.3555,1.206,-1.6195,0.4135,0.5065,0.369,-0.1955,-0.6925,-0.589,-0.6885,-0.185,-0.5685,-0.3165
-1.891,-0.532,1.3585,1.2115,-1.625,0.4135,0.5075,0.3705,-0.1975,-0.693,-0.5885,-0.688,-0.182,-0.567,-0.313
-1.8905,-0.5345,1.356,1.2125,-1.623,0.4105,0.5075,0.3705,-0.198,-0.693,-0.5865,-0.686,-0.1785,-0.565,-0.3075
-1.878,-0.527,1.3515,1.2025,-1.615,0.4125,0.5085,0.3705,-0.195,-0.689,-0.582,-0.6825,-0.1785,-0.5615,-0.3055
-1.8745,-0.5175,1.357,1.196,-1.6155,0.4195,0.5105,0.3675,-0.1945,-0.6885,-0.5785,-0.6805,-0.182,-0.5585,-0.3085
-1.8685,-0.511,1.3575,1.19,-1.613,0.4235,0.5105,0.3695,-0.193,-0.6845,-0.5745,-0.675,-0.182,-0.558,-0.308
-1.861,-0.507,1.354,1.184,-1.6075,0.4235,0.5075,0.369,-0.195,-0.6855,-0.5765,-0.675,-0.183,-0.5585,-0.3065
-1.8735,-0.5135,1.36,1.1935,-1.617,0.4235,0.5055,0.3625,-0.2,-0.687,-0.577,-0.678,-0.188,-0.556,-0.31
-1.8885,-0.5205,1.3685,1.2045,-1.6285,0.424,0.5,0.3615,-0.2025,-0.688,-0.577,-0.679,-0.1915,-0.5565,-0.313
-1.8835,-0.5165,1.3675,1.2,-1.6255,0.4255,0.497,0.361,-0.204,-0.689,-0.5795,-0.6795,-0.192,-0.5585,-0.3125
-1.873,-0.503,1.3705,1.188,-1.622,0.4335,0.504,0.363,-0.2025,-0.685,-0.5745,-0.674,-0.192,-0.558,-0.313
-1.8675,-0.496,1.3715,1.1815,-1.6195,0.438,0.5045,0.363,-0.202,-0.685,-0.5725,-0.671,-0.191,-0.5555,-0.3115
-1.864,-0.491,1.373,1.1775,-1.6185,0.441,0.5025,0.3605,-0.201,-0.686,-0.5745,-0.672,-0.192,-0.5545,-0.3095
-1.869,-0.4935,1.3755,1.1815,-1.6225,0.441,0.5,0.356,-0.2055,-0.6905,-0.578,-0.674,-0.1935,-0.5525,-0.309
-1.8765,-0.5005,1.376,1.1885,-1.626,0.4375,0.4985,0.3505,-0.214,-0.6955,-0.584,-0.679,-0.194,-0.553,-0.306
-1.8835,-0.51,1.3735,1.197,-1.6285,0.4315,0.4975,0.347,-0.2185,-0.7,-0.5885,-0.6835,-0.1955,-0.557,-0.307
-1.8855,-0.515,1.371,1.2,-1.628,0.428,0.496,0.3455,-0.218,-0.701,-0.5875,-0.683,-0.195,-0.5535,-0.3065
-1.8795,-0.5075,1.372,1.1935,-1.6255,0.432,0.501,0.3465,-0.2185,-0.699,-0.586,-0.681,-0.1965,-0.554,-0.302
-1.88,-0.5055,1.375,1.1925,-1.6275,0.4345,0.502,0.3455,-0.2205,-0.699,-0.5845,-0.679,-0.1955,-0.5545,-0.3025
-1.8775,-0.5,1.3775,1.189,-1.6275,0.4385,0.503,0.3455,-0.221,-0.699,-0.583,-0.677,-0.1955,-0.5515,-0.304
-1.87,-0.5005,1.3695,1.185,-1.62,0.4345,0.505,0.347,-0.2245,-0.7015,-0.584,-0.6765,-0.1965,-0.554,-0.302
-1.8695,-0.503,1.367,1.186,-1.6185,0.432,0.5045,0.348,-0.222,-0.7,-0.5825,-0.674,-0.1955,-0.552,-0.3025
-1.8745,-0.5005,1.3745,1.1875,-1.6245,0.437,0.506,0.3465,-0.2195,-0.6985,-0.582,-0.674,-0.1955,-0.5475,-0.3035
-1.873,-0.492,1.3815,1.1825,-1.6275,0.445,0.5085,0.344,-0.2215,-0.7,-0.5845,-0.675,-0.196,-0.5435,-0.3045
-1.8705,-0.487,1.3835,1.1785,-1.6275,0.4485,0.5065,0.343,-0.225,-0.7045,-0.588,-0.6755,-0.197,-0.5415,-0.3045
-1.874,-0.4925,1.3815,1.1835,-1.628,0.4445,0.5055,0.343,-0.2285,-0.706,-0.588,-0.675,-0.1975,-0.541,-0.3065
-1.875,-0.4905,1.3845,1.1825,-1.63,0.447,0.507,0.3415,-0.2285,-0.7055,-0.5875,-0.675,-0.1995,-0.5355,-0.308
-1.8715,-0.49,1.382,1.1805,-1.627,0.446,0.5085,0.3415,-0.2295,-0.7055,-0.5885,-0.673,-0.1995,-0.5395,-0.3075
-1.87,-0.494,1.376,1.182,-1.623,0.441,0.5105,0.341,-0.2295,-0.7055,-0.588,-0.672,-0.199,-0.547,-0.3085
-1.875,-0.499,1.376,1.1875,-1.6255,0.4385,0.509,0.339,-0.2325,-0.7115,-0.5925,-0.677,-0.2,-0.545,-0.308
-1.878,-0.503,1.375,1.1905,-1.6265,0.436,0.505,0.337,-0.2355,-0.714,-0.5945,-0.6785,-0.2005,-0.5475,-0.306
-1.8805,-0.5045,1.376,1.1925,-1.6285,0.436,0.5035,0.334,-0.2375,-0.7155,-0.5965,-0.6795,-0.201,-0.547,-0.3045
-1.883,-0.5035,1.38,1.1935,-1.6315,0.438,0.506,0.335,-0.2375,-0.7165,-0.598,-0.683,-0.202,-0.5445,-0.304
-1.883,-0.504,1.3785,1.1935,-1.6305,0.437,0.507,0.335,-0.2375,-0.715,-0.599,-0.683,-0.1985,-0.5455,-0.299
-1.893,-0.5155,1.3775,1.2045,-1.6355,0.431,0.5035,0.3295,-0.242,-0.719,-0.602,-0.6875,-0.1955,-0.5435,-0.2955
-1.9015,-0.524,1.3775,1.2125,-1.6395,0.427,0.5015,0.323,-0.2485,-0.726,-0.6065,-0.691,-0.1975,-0.542,-0.293
-1.9075,-0.527,1.3805,1.217,-1.644,0.427,0.5025,0.32,-0.252,-0.73,-0.611,-0.692,-0.1955,-0.542,-0.288
-1.9235,-0.536,1.387,1.2295,-1.655,0.4255,0.501,0.3195,-0.256,-0.733,-0.613,-0.695,-0.1965,-0.545,-0.2885
-1.924,-0.5385,1.3855,1.2315,-1.655,0.4235,0.5,0.32,-0.2565,-0.7335,-0.614,-0.696,-0.196,-0.546,-0.2865
-1.9165,-0.532,1.3845,1.224,-1.6505,0.426,0.5055,0.3235,-0.2525,-0.7305,-0.608,-0.6935,-0.1935,-0.545,-0.2875
-1.9155,-0.532,1.3835,1.2235,-1.6495,0.4255,0.5085,0.321,-0.256,-0.7315,-0.6085,-0.6905,-0.1935,-0.545,-0.291
-1.9145,-0.531,1.3835,1.223,-1.649,0.426,0.5085,0.3185,-0.259,-0.7345,-0.612,-0.6915,-0.1995,-0.5445,-0.291
-1.911,-0.525,1.386,1.218,-1.6485,0.4305,0.512,0.3225,-0.256,-0.7345,-0.6085,-0.6895,-0.203,-0.5415,-0.291
-1.897,-0.514,1.383,1.2055,-1.64,0.4345,0.515,0.3235,-0.2535,-0.733,-0.6075,-0.6845,-0.201,-0.5375,-0.2885
-1.875,-0.495,1.3805,1.185,-1.628,0.443,0.519,0.3285,-0.249,-0.7275,-0.601,-0.6775,-0.2025,-0.5355,-0.288
-1.866,-0.483,1.3835,1.1745,-1.625,0.45,0.526,0.3345,-0.246,-0.7245,-0.5965,-0.6715,-0.2045,-0.536,-0.2895
-1.861,-0.4755,1.3855,1.1685,-1.6235,0.455,0.5295,0.337,-0.246,-0.724,-0.5975,-0.6695,-0.206,-0.5385,-0.2925
-1.856,-0.468,1.388,1.162,-1.622,0.46,0.53,0.3375,-0.246,-0.7225,-0.5955,-0.6685,-0.204,-0.539,-0.294
-1.872,-0.4805,1.3915,1.176,-1.632,0.4555,0.5245,0.334,-0.249,-0.727,-0.597,-0.671,-0.206,-0.539,-0.2955
-1.8815,-0.491,1.3905,1.1865,-1.636,0.45,0.5165,0.3275,-0.2545,-0.733,-0.602,-0.6745,-0.2085,-0.5395,-0.294
-1.8775,-0.4875,1.39,1.1825,-1.634,0.451,0.5145,0.326,-0.257,-0.7345,-0.6025,-0.6745,-0.206,-0.5415,-0.2895
-1.882,-0.4875,1.394,1.185,-1.638,0.453,0.515,0.3265,-0.257,-0.735,-0.604,-0.676,-0.2085,-0.543,-0.291
-1.884,-0.493,1.3915,1.1885,-1.6375,0.4495,0.5165,0.328,-0.256,-0.737,-0.6045,-0.6765,-0.2075,-0.5435,-0.2905
-1.8815,-0.4955,1.386,1.1885,-1.634,0.4455,0.5175,0.329,-0.2555,-0.7365,-0.603,-0.6745,-0.206,-0.545,-0.289
-1.876,-0.4885,1.3875,1.1825,-1.632,0.4495,0.5195,0.33,-0.2565,-0.737,-0.6015,-0.6725,-0.2055,-0.544,-0.288
-1.8735,-0.4885,1.3855,1.181,-1.6295,0.4485,0.5165,0.329,-0.2575,-0.739,-0.603,-0.6735,-0.2045,-0.5435,-0.2865
-1.885,-0.496,1.389,1.1905,-1.637,0.4465,0.5145,0.325,-0.2605,-0.7435,-0.609,-0.678,-0.2095,-0.542,-0.287
-1.892,-0.5005,1.3915,1.196,-1.6415,0.4455,0.5175,0.326,-0.2615,-0.744,-0.61,-0.6785,-0.2105,-0.542,-0.2875
-1.892,-0.4995,1.3925,1.196,-1.642,0.4465,0.5145,0.3225,-0.264,-0.7465,-0.612,-0.6815,-0.2115,-0.5395,-0.2905
-1.8955,-0.5,1.3955,1.198,-1.6455,0.4475,0.5155,0.319,-0.268,-0.7505,-0.6145,-0.6835,-0.2145,-0.535,-0.292
-1.895,-0.503,1.392,1.199,-1.6435,0.4445,0.515,0.321,-0.268,-0.749,-0.6125,-0.6825,-0.2135,-0.537,-0.289
-1.8935,-0.504,1.3895,1.199,-1.6415,0.443,0.513,0.3215,-0.2665,-0.749,-0.6115,-0.6825,-0.2105,-0.537,-0.2875
-1.9025,-0.512,1.3905,1.207,-1.6465,0.4395,0.514,0.3195,-0.2705,-0.7515,-0.6145,-0.6835,-0.208,-0.534,-0.2865
-1.9165,-0.524,1.3925,1.22,-1.6545,0.434,0.511,0.317,-0.274,-0.754,-0.6175,-0.686,-0.206,-0.5365,-0.287
-1.9145,-0.5235,1.3915,1.219,-1.653,0.434,0.5125,0.3165,-0.2735,-0.7525,-0.615,-0.6855,-0.2045,-0.535,-0.286
-1.91,-0.521,1.389,1.2155,-1.6495,0.434,0.5135,0.318,-0.274,-0.7525,-0.6155,-0.6855,-0.205,-0.5325,-0.2835
-1.9195,-0.5285,1.391,1.224,-1.655,0.431,0.512,0.3185,-0.275,-0.755,-0.619,-0.6875,-0.2065,-0.5365,-0.2835
-1.918,-0.5265,1.3915,1.222,-1.6545,0.4325,0.512,0.319,-0.275,-0.7545,-0.618,-0.6875,-0.2045,-0.537,-0.2815
-1.909,-0.522,1.3865,1.2155,-1.6475,0.432,0.5145,0.32,-0.274,-0.7535,-0.6175,-0.6865,-0.2015,-0.5395,-0.281
-1.907,-0.5215,1.386,1.214,-1.6465,0.4325,0.517,0.3195,-0.274,-0.752,-0.618,-0.6865,-0.2025,-0.5415,-0.283
-1.9065,-0.5175,1.389,1.212,-1.648,0.4355,0.5155,0.321,-0.274,-0.7515,-0.6205,-0.6895,-0.2065,-0.5395,-0.285
-1.907,-0.511,1.396,1.209,-1.6515,0.4425,0.516,0.32,-0.274,-0.7545,-0.6215,-0.69,-0.21,-0.5405,-0.286
-1.8995,-0.505,1.395,1.202,-1.647,0.445,0.514,0.317,-0.2755,-0.755,-0.62,-0.6895,-0.2105,-0.5395,-0.2845
-1.9005,-0.5055,1.395,1.203,-1.6475,0.445,0.5115,0.3175,-0.2755,-0.7555,-0.623,-0.691,-0.2095,-0.54,-0.283
-1.9105,-0.51,1.4005,1.21,-1.6555,0.4455,0.515,0.3175,-0.2775,-0.7565,-0.6235,-0.6915,-0.21,-0.542,-0.2825
-1.909,-0.5145,1.395,1.2115,-1.652,0.44,0.5165,0.3185,-0.278,-0.755,-0.6225,-0.6925,-0.21,-0.5395,-0.282
-1.908,-0.515,1.3935,1.2115,-1.651,0.4395,0.5135,0.3185,-0.2755,-0.755,-0.621,-0.692,-0.207,-0.538,-0.2805
-1.9135,-0.513,1.4005,1.2135,-1.657,0.4435,0.513,0.3175,-0.275,-0.757,-0.623,-0.693,-0.208,-0.5335,-0.2805
-1.9085,-0.507,1.401,1.2075,-1.6545,0.447,0.515,0.319,-0.275,-0.7575,-0.6245,-0.6915,-0.2095,-0.5275,-0.28
-1.8955,-0.499,1.3965,1.197,-1.646,0.449,0.518,0.3245,-0.272,-0.752,-0.6185,-0.6855,-0.209,-0.5265,-0.2795
-1.888,-0.498,1.3905,1.193,-1.639,0.4465,0.5175,0.3275,-0.2685,-0.7475,-0.6145,-0.6805,-0.211,-0.528,-0.281
-1.8825,-0.494,1.3885,1.188,-1.6355,0.447,0.518,0.3275,-0.2675,-0.7475,-0.6145,-0.678,-0.213,-0.532,-0.2825
-1.887,-0.4965,1.3905,1.1915,-1.6385,0.447,0.518,0.326,-0.2695,-0.7475,-0.6155,-0.679,-0.2135,-0.5345,-0.2835
-1.893,-0.5005,1.3925,1.197,-1.643,0.446,0.5135,0.323,-0.272,-0.75,-0.618,-0.6815,-0.2165,-0.5345,-0.285
-1.8965,-0.499,1.3975,1.198,-1.647,0.449,0.514,0.324,-0.272,-0.7495,-0.617,-0.6815,-0.217,-0.5335,-0.2855
-1.9015,-0.5,1.4015,1.2005,-1.6515,0.451,0.514,0.325,-0.272,-0.749,-0.6165,-0.6785,-0.2165,-0.5305,-0.285
-1.8995,-0.498,1.4015,1.199,-1.6505,0.4515,0.5155,0.3245,-0.2745,-0.749,-0.617,-0.6775,-0.2185,-0.5315,-0.285
-1.893,-0.4975,1.3955,1.1955,-1.6445,0.449,0.5145,0.325,-0.2715,-0.746,-0.6125,-0.676,-0.217,-0.5365,-0.286
-1.89,-0.4975,1.392,1.1935,-1.641,0.447,0.5115,0.324,-0.2715,-0.7475,-0.6135,-0.6765,-0.2165,-0.5375,-0.2875
-1.895,-0.5035,1.3915,1.199,-1.6435,0.444,0.516,0.322,-0.274,-0.7505,-0.617,-0.678,-0.2165,-0.5385,-0.286
-1.8965,-0.5045,1.392,1.2005,-1.6445,0.444,0.52,0.3235,-0.2745,-0.7495,-0.615,-0.676,-0.2155,-0.54,-0.2855
-1.8835,-0.494,1.3895,1.1885,-1.6365,0.448,0.5155,0.321,-0.2765,-0.75,-0.615,-0.675,-0.214,-0.534,-0.2855
-1.878,-0.4865,1.391,1.182,-1.6345,0.4525,0.515,0.3255,-0.271,-0.747,-0.6135,-0.6725,-0.214,-0.53,-0.2835
-1.8875,-0.4885,1.399,1.188,-1.643,0.455,0.523,0.3355,-0.265,-0.742,-0.6095,-0.672,-0.216,-0.5355,-0.287
-1.8765,-0.485,1.3915,1.181,-1.6345,0.4535,0.5205,0.3295,-0.266,-0.7435,-0.609,-0.674,-0.216,-0.5315,-0.2865
-1.875,-0.487,1.3885,1.181,-1.632,0.451,0.5155,0.3265,-0.2695,-0.747,-0.6135,-0.675,-0.2165,-0.5305,-0.2855
-1.8865,-0.4895,1.397,1.188,-1.6415,0.454,0.5155,0.33,-0.2665,-0.745,-0.6105,-0.6745,-0.217,-0.534,-0.288
-1.8855,-0.483,1.4025,1.1845,-1.644,0.4595,0.5175,0.3335,-0.2635,-0.742,-0.609,-0.672,-0.216,-0.533,-0.286
-1.891,-0.489,1.402,1.19,-1.6465,0.4565,0.52,0.3335,-0.266,-0.744,-0.61,-0.673,-0.2165,-0.5335,-0.2855
-1.891,-0.496,1.3945,1.1935,-1.6425,0.4495,0.517,0.329,-0.268,-0.7465,-0.6095,-0.674,-0.214,-0.536,-0.285
-1.8965,-0.5055,1.391,1.201,-1.644,0.4425,0.5195,0.3275,-0.2695,-0.7485,-0.6115,-0.674,-0.2125,-0.5375,-0.286
-1.9,-0.509,1.391,1.2045,-1.6455,0.441,0.5215,0.3275,-0.2685,-0.749,-0.611,-0.6745,-0.2125,-0.5365,-0.2865
-1.8925,-0.5045,1.388,1.199,-1.6405,0.4415,0.5155,0.328,-0.268,-0.7475,-0.6075,-0.6745,-0.2085,-0.5385,-0.284
-1.8885,-0.5035,1.385,1.196,-1.637,0.441,0.515,0.3275,-0.2705,-0.748,-0.6065,-0.6745,-0.204,-0.5355,-0.2835
-1.8895,-0.502,1.3875,1.196,-1.6385,0.4425,0.5155,0.3275,-0.2705,-0.749,-0.61,-0.676,-0.2005,-0.534,-0.2805
-1.8965,-0.5055,1.391,1.201,-1.644,0.443,0.515,0.3265,-0.2725,-0.75,-0.6115,-0.677,-0.199,-0.533,-0.2795
-1.9065,-0.5145,1.392,1.2105,-1.649,0.4385,0.5145,0.324,-0.274,-0.7505,-0.6115,-0.6775,-0.1995,-0.5315,-0.282
-1.9085,-0.5175,1.391,1.213,-1.65,0.437,0.513,0.323,-0.2745,-0.7495,-0.6115,-0.6785,-0.2005,-0.536,-0.2835
-1.907,-0.5165,1.3905,1.212,-1.649,0.437,0.512,0.3245,-0.2735,-0.749,-0.611,-0.678,-0.1995,-0.536,-0.2845
-1.911,-0.519,1.3925,1.215,-1.6515,0.437,0.512,0.327,-0.2695,-0.7475,-0.6085,-0.6765,-0.1975,-0.5375,-0.2855
-1.9065,-0.516,1.391,1.211,-1.6485,0.4375,0.515,0.3265,-0.2695,-0.747,-0.6075,-0.675,-0.198,-0.537,-0.285
-1.905,-0.516,1.389,1.2105,-1.647,0.4365,0.5145,0.3255,-0.271,-0.748,-0.609,-0.677,-0.1995,-0.537,-0.2835
-1.901,-0.513,1.3875,1.207,-1.6445,0.4375,0.514,0.326,-0.27,-0.7475,-0.607,-0.676,-0.199,-0.5375,-0.2835
-1.898,-0.5055,1.3925,1.202,-1.6455,0.4435,0.514,0.326,-0.2695,-0.7465,-0.6075,-0.6755,-0.1985,-0.5315,-0.2845
-1.892,-0.5,1.392,1.196,-1.642,0.446,0.515,0.3305,-0.267,-0.7445,-0.6075,-0.676,-0.2,-0.532,-0.2835
-1.8825,-0.4955,1.3865,1.189,-1.6345,0.4455,0.5175,0.3315,-0.264,-0.745,-0.608,-0.6745,-0.198,-0.533,-0.2815
-1.8945,-0.503,1.3915,1.1985,-1.643,0.4445,0.5155,0.3305,-0.266,-0.7455,-0.6075,-0.675,-0.1935,-0.531,-0.2815
-1.901,-0.5105,1.39,1.206,-1.6455,0.4395,0.512,0.33,-0.268,-0.7465,-0.6085,-0.6755,-0.194,-0.5315,-0.2795
-1.892,-0.5075,1.3845,1.1995,-1.638,0.4385,0.5125,0.3305,-0.265,-0.7455,-0.6075,-0.6735,-0.194,-0.5325,-0.2795
-1.896,-0.507,1.389,1.2015,-1.6425,0.441,0.5175,0.333,-0.2625,-0.743,-0.6045,-0.6715,-0.1955,-0.5295,-0.2815
-1.9015,-0.505,1.396,1.2035,-1.649,0.4455,0.5175,0.3315,-0.2635,-0.7445,-0.606,-0.6725,-0.2005,-0.5225,-0.2815
-1.889,-0.492,1.397,1.1905,-1.643,0.4525,0.5175,0.3325,-0.2615,-0.743,-0.6035,-0.6715,-0.2,-0.52,-0.2815
-1.8805,-0.483,1.398,1.182,-1.6395,0.4575,0.5195,0.3365,-0.26,-0.7405,-0.599,-0.67,-0.1985,-0.5195,-0.283
-1.8765,-0.478,1.3985,1.1775,-1.6375,0.4605,0.52,0.337,-0.2615,-0.738,-0.599,-0.6685,-0.198,-0.52,-0.283
-1.8725,-0.4775,1.395,1.175,-1.634,0.459,0.5195,0.337,-0.261,-0.739,-0.6005,-0.669,-0.1945,-0.523,-0.282
-1.884,-0.489,1.3945,1.1865,-1.639,0.4525,0.517,0.3345,-0.263,-0.742,-0.6035,-0.6745,-0.195,-0.527,-0.284
-1.892,-0.494,1.398,1.193,-1.645,0.452,0.516,0.3325,-0.264,-0.742,-0.604,-0.6765,-0.197,-0.524,-0.2815
-1.8985,-0.498,1.4005,1.1985,-1.6495,0.451,0.5095,0.3295,-0.266,-0.745,-0.608,-0.681,-0.201,-0.5195,-0.2795
-1.905,-0.5025,1.4025,1.2035,-1.6535,0.45,0.506,0.326,-0.2695,-0.749,-0.6135,-0.685,-0.205,-0.5205,-0.279
-1.898,-0.4955,1.402,1.197,-1.65,0.4535,0.5115,0.331,-0.265,-0.7445,-0.608,-0.681,-0.2025,-0.524,-0.2795
-1.893,-0.4925,1.401,1.193,-1.647,0.454,0.5145,0.3355,-0.26,-0.739,-0.604,-0.6765,-0.199,-0.5255,-0.281
-1.8955,-0.495,1.4005,1.1955,-1.648,0.4525,0.517,0.3385,-0.2585,-0.739,-0.606,-0.677,-0.2005,-0.5265,-0.281
-1.891,-0.4915,1.3995,1.191,-1.645,0.454,0.518,0.339,-0.2575,-0.739,-0.604,-0.678,-0.202,-0.527,-0.2815
-1.8825,-0.483,1.3995,1.183,-1.641,0.4585,0.5205,0.3395,-0.2555,-0.7375,-0.602,-0.676,-0.2015,-0.525,-0.282
-1.89,-0.492,1.398,1.191,-1.644,0.453,0.519,0.3395,-0.2555,-0.737,-0.606,-0.6805,-0.206,-0.5285,-0.2865
-1.888,-0.491,1.397,1.1895,-1.6425,0.453,0.517,0.3395,-0.2555,-0.736,-0.6055,-0.6805,-0.207,-0.526,-0.288
-1.876,-0.48,1.396,1.178,-1.636,0.458,0.5165,0.344,-0.2545,-0.733,-0.6025,-0.6755,-0.2065,-0.525,-0.287
-1.8745,-0.4845,1.39,1.1795,-1.632,0.4525,0.5115,0.341,-0.256,-0.7345,-0.602,-0.6765,-0.208,-0.529,-0.287
-1.873,-0.484,1.389,1.1785,-1.631,0.4525,0.513,0.3385,-0.2565,-0.7345,-0.6005,-0.6765,-0.208,-0.5295,-0.2865
-1.8815,-0.485,1.3965,1.183,-1.639,0.456,0.5165,0.341,-0.255,-0.7335,-0.5995,-0.6745,-0.208,-0.5295,-0.288
-1.884,-0.4845,1.3995,1.1845,-1.642,0.4575,0.519,0.3445,-0.252,-0.733,-0.597,-0.6715,-0.2065,-0.5315,-0.2885
-1.8795,-0.481,1.399,1.1805,-1.6395,0.459,0.5205,0.344,-0.251,-0.7315,-0.597,-0.6705,-0.2065,-0.532,-0.287
-1.875,-0.4795,1.395,1.1775,-1.635,0.4575,0.519,0.3425,-0.2505,-0.731,-0.5965,-0.6685,-0.2055,-0.5305,-0.286
-1.875,-0.4815,1.3935,1.1785,-1.634,0.456,0.52,0.3445,-0.25,-0.7305,-0.5945,-0.6645,-0.204,-0.5335,-0.287
-1.8825,-0.488,1.3945,1.185,-1.6385,0.453,0.52,0.342,-0.2525,-0.732,-0.5955,-0.667,-0.2055,-0.5325,-0.289
-1.886,-0.494,1.392,1.19,-1.639,0.449,0.5215,0.343,-0.253,-0.732,-0.597,-0.668,-0.2075,-0.5355,-0.2885
-1.8905,-0.5,1.39,1.195,-1.64,0.445,0.5215,0.3445,-0.2525,-0.731,-0.5975,-0.667,-0.208,-0.5375,-0.2855
-1.887,-0.5015,1.3855,1.1945,-1.6365,0.442,0.52,0.3415,-0.253,-0.7305,-0.5965,-0.667,-0.204,-0.5355,-0.2835
-1.8875,-0.501,1.387,1.1945,-1.6375,0.443,0.518,0.3405,-0.2565,-0.732,-0.598,-0.6685,-0.2,-0.5315,-0.2845
-1.8895,-0.4995,1.3905,1.1945,-1.64,0.4455,0.512,0.3375,-0.2605,-0.7365,-0.602,-0.6725,-0.198,-0.5225,-0.284
-1.8945,-0.5025,1.3915,1.1985,-1.643,0.4445,0.5135,0.336,-0.259,-0.7355,-0.603,-0.671,-0.2,-0.5235,-0.2845
-1.9005,-0.5075,1.393,1.204,-1.6465,0.443,0.5165,0.339,-0.258,-0.7335,-0.6,-0.6675,-0.2015,-0.5305,-0.2865
-1.892,-0.5,1.392,1.196,-1.642,0.446,0.514,0.3395,-0.2575,-0.734,-0.5975,-0.6655,-0.1995,-0.5285,-0.286
-1.89,-0.495,1.395,1.1925,-1.6425,0.45,0.5155,0.3355,-0.257,-0.732,-0.597,-0.6635,-0.1995,-0.522,-0.287
-1.8895,-0.4965,1.393,1.193,-1.641,0.448,0.517,0.336,-0.258,-0.732,-0.596,-0.6625,-0.1975,-0.524,-0.2895
-1.89,-0.5,1.39,1.195,-1.64,0.445,0.5165,0.3385,-0.2565,-0.7315,-0.596,-0.662,-0.1955,-0.526,-0.2895
-1.895,-0.506,1.3885,1.2005,-1.642,0.4415,0.516,0.339,-0.256,-0.7295,-0.5925,-0.6605,-0.1955,-0.528,-0.2895
-1.891,-0.505,1.3865,1.198,-1.6385,0.441,0.5175,0.339,-0.256,-0.7295,-0.5915,-0.658,-0.196,-0.531,-0.2885
-1.8905,-0.5045,1.386,1.1975,-1.638,0.441,0.5195,0.3425,-0.254,-0.7285,-0.5915,-0.6565,-0.1945,-0.529,-0.2865
-1.8885,-0.5045,1.384,1.1965,-1.6365,0.44,0.5205,0.3455,-0.2515,-0.7265,-0.5885,-0.656,-0.194,-0.529,-0.2855
-1.887,-0.5005,1.3865,1.1935,-1.6365,0.443,0.5215,0.3435,-0.253,-0.728,-0.5915,-0.657,-0.194,-0.527,-0.2825
-1.8815,-0.495,1.3865,1.188,-1.634,0.446,0.5195,0.3405,-0.256,-0.73,-0.5945,-0.6595,-0.1915,-0.52,-0.2825
-1.875,-0.4855,1.389,1.1805,-1.632,0.4515,0.5185,0.3425,-0.253,-0.728,-0.594,-0.6585,-0.193,-0.5145,-0.284
-1.8715,-0.478,1.3935,1.1745,-1.6325,0.458,0.522,0.347,-0.2505,-0.725,-0.5925,-0.657,-0.191,-0.5155,-0.2815
-1.8695,-0.477,1.3925,1.1735,-1.631,0.458,0.524,0.347,-0.2505,-0.724,-0.592,-0.6575,-0.191,-0.52,-0.281
-1.872,-0.4795,1.3925,1.176,-1.6325,0.4565,0.5235,0.348,-0.25,-0.7255,-0.5955,-0.6585,-0.194,-0.5195,-0.281
-1.876,-0.484,1.392,1.1805,-1.634,0.454,0.5225,0.3485,-0.2515,-0.728,-0.598,-0.6605,-0.195,-0.522,-0.2815
-1.8775,-0.4855,1.392,1.1815,-1.6345,0.4535,0.5225,0.346,-0.253,-0.7275,-0.5965,-0.66,-0.1965,-0.5245,-0.283
-1.874,-0.4805,1.393,1.1775,-1.6335,0.4565,0.5245,0.347,-0.253,-0.7275,-0.596,-0.66,-0.198,-0.522,-0.2815
-1.8775,-0.4835,1.394,1.1805,-1.6355,0.4555,0.524,0.3445,-0.256,-0.7305,-0.6,-0.6615,-0.2005,-0.521,-0.2825
-1.8785,-0.484,1.3945,1.1815,-1.6365,0.4555,0.5215,0.3405,-0.2595,-0.733,-0.6015,-0.6625,-0.1995,-0.52,-0.2825
-1.8845,-0.4815,1.403,1.183,-1.644,0.461,0.524,0.3425,-0.258,-0.732,-0.599,-0.662,-0.2,-0.5255,-0.283
-1.8815,-0.481,1.401,1.181,-1.6415,0.46,0.527,0.3455,-0.254,-0.728,-0.597,-0.6605,-0.198,-0.5295,-0.285
-1.8755,-0.4785,1.3965,1.177,-1.636,0.459,0.527,0.348,-0.2525,-0.728,-0.5975,-0.663,-0.1975,-0.5275,-0.2835
-1.881,-0.483,1.398,1.182,-1.6395,0.4575,0.5235,0.3425,-0.257,-0.7325,-0.6025,-0.667,-0.2,-0.528,-0.282
-1.8875,-0.496,1.3915,1.1915,-1.6395,0.448,0.517,0.3385,-0.262,-0.736,-0.606,-0.671,-0.199,-0.5275,-0.2825
-1.901,-0.506,1.3945,1.2035,-1.6475,0.444,0.513,0.3385,-0.264,-0.7395,-0.6095,-0.6755,-0.1995,-0.5265,-0.2855
-1.893,-0.4995,1.394,1.196,-1.6435,0.4475,0.5175,0.3365,-0.2655,-0.7405,-0.61,-0.675,-0.199,-0.5285,-0.2865
-1.8905,-0.4905,1.4,1.1905,-1.6455,0.455,0.523,0.341,-0.259,-0.7355,-0.605,-0.673,-0.2005,-0.5285,-0.2875
-1.898,-0.4925,1.4055,1.195,-1.6515,0.4565,0.5255,0.3425,-0.258,-0.7335,-0.6045,-0.673,-0.2025,-0.5275,-0.288
-1.897,-0.497,1.4,1.197,-1.6485,0.4515,0.526,0.3415,-0.262,-0.7355,-0.6065,-0.6745,-0.2025,-0.5275,-0.2855
-1.8885,-0.49,1.398,1.189,-1.643,0.454,0.5265,0.3435,-0.2595,-0.734,-0.605,-0.6705,-0.201,-0.5245,-0.2845
-1.8785,-0.4825,1.396,1.1805,-1.637,0.457,0.526,0.3445,-0.2595,-0.734,-0.6045,-0.669,-0.2025,-0.5185,-0.2835
-1.891,-0.4885,1.402,1.19,-1.6465,0.4565,0.527,0.3445,-0.2585,-0.7335,-0.6045,-0.671,-0.2065,-0.5195,-0.284
-1.8925,-0.4915,1.401,1.192,-1.6465,0.4545,0.5275,0.343,-0.2605,-0.735,-0.605,-0.6705,-0.205,-0.521,-0.284
-1.885,-0.4875,1.398,1.1865,-1.6415,0.4555,0.53,0.343,-0.26,-0.7345,-0.6035,-0.668,-0.201,-0.5215,-0.2845
-1.888,-0.489,1.3995,1.1885,-1.644,0.4555,0.5325,0.343,-0.2615,-0.735,-0.6025,-0.6675,-0.202,-0.5245,-0.285
-1.8865,-0.4875,1.399,1.1875,-1.643,0.4555,0.5305,0.3425,-0.2635,-0.735,-0.602,-0.668,-0.206,-0.5215,-0.2865
-1.884,-0.4785,1.4055,1.1815,-1.6445,0.4635,0.5335,0.3435,-0.2595,-0.732,-0.599,-0.6635,-0.2045,-0.5235,-0.2855
-1.883,-0.4745,1.4085,1.1785,-1.646,0.467,0.5325,0.3435,-0.259,-0.7325,-0.5985,-0.6625,-0.203,-0.5255,-0.284
-1.879,-0.479,1.4,1.179,-1.6395,0.4605,0.5265,0.342,-0.262,-0.734,-0.5995,-0.6635,-0.2015,-0.527,-0.2835
-1.877,-0.483,1.394,1.18,-1.6355,0.4555,0.5235,0.3395,-0.264,-0.737,-0.602,-0.6645,-0.2,-0.531,-0.2805
-1.881,-0.4855,1.396,1.183,-1.6385,0.4555,0.525,0.34,-0.2645,-0.7365,-0.602,-0.665,-0.202,-0.529,-0.279
-1.8825,-0.488,1.3945,1.1855,-1.6385,0.4535,0.5265,0.34,-0.266,-0.7375,-0.6015,-0.6635,-0.2005,-0.532,-0.2775
-1.8755,-0.4835,1.3915,1.1795,-1.6335,0.454,0.5225,0.338,-0.2665,-0.7385,-0.603,-0.6645,-0.1975,-0.5295,-0.2765
-1.876,-0.4835,1.3925,1.18,-1.634,0.4545,0.521,0.3395,-0.2645,-0.738,-0.602,-0.6665,-0.1985,-0.525,-0.277
-1.885,-0.4895,1.3955,1.1875,-1.64,0.4525,0.522,0.3415,-0.2645,-0.739,-0.6025,-0.6685,-0.201,-0.5265,-0.278
-1.89,-0.4895,1.4005,1.1895,-1.645,0.4555,0.524,0.3395,-0.2675,-0.741,-0.605,-0.6685,-0.2055,-0.5265,-0.277
-1.889,-0.4865,1.402,1.188,-1.6455,0.458,0.524,0.3385,-0.2675,-0.742,-0.6045,-0.6695,-0.209,-0.5245,-0.2795
-1.8855,-0.4845,1.4015,1.185,-1.6435,0.4585,0.5215,0.3385,-0.2695,-0.7425,-0.605,-0.67,-0.208,-0.5235,-0.279
-1.8825,-0.48,1.4025,1.181,-1.6425,0.4615,0.5245,0.3395,-0.27,-0.7425,-0.605,-0.669,-0.2065,-0.526,-0.277
-1.8785,-0.4795,1.399,1.1795,-1.639,0.4595,0.525,0.339,-0.2685,-0.743,-0.604,-0.6695,-0.206,-0.526,-0.277
-1.8815,-0.4825,1.399,1.182,-1.6405,0.4585,0.5225,0.3355,-0.2695,-0.7455,-0.6055,-0.671,-0.206,-0.523,-0.275
-1.886,-0.4815,1.404,1.1835,-1.645,0.4615,0.5195,0.336,-0.2685,-0.744,-0.6035,-0.669,-0.2065,-0.5165,-0.2765
-1.889,-0.486,1.403,1.1875,-1.646,0.4585,0.5195,0.3345,-0.2695,-0.746,-0.6065,-0.6735,-0.2085,-0.519,-0.2795
-1.8935,-0.4935,1.4,1.1935,-1.647,0.4535,0.5215,0.3325,-0.2725,-0.749,-0.612,-0.6775,-0.2125,-0.523,-0.2815
-1.8855,-0.492,1.394,1.189,-1.6395,0.451,0.523,0.335,-0.27,-0.7455,-0.609,-0.6725,-0.2105,-0.5235,-0.281
-1.8735,-0.4845,1.389,1.179,-1.6315,0.4525,0.5235,0.3355,-0.2685,-0.7435,-0.6075,-0.6695,-0.2085,-0.5245,-0.2795
-1.883,-0.478,1.405,1.1805,-1.644,0.4635,0.522,0.3375,-0.2675,-0.744,-0.609,-0.671,-0.212,-0.5195,-0.2785
-1.889,-0.475,1.414,1.182,-1.6515,0.4695,0.5235,0.335,-0.2705,-0.748,-0.614,-0.674,-0.212,-0.5165,-0.2755
-1.8925,-0.485,1.4075,1.189,-1.6505,0.4615,0.516,0.3235,-0.28,-0.756,-0.621,-0.679,-0.2115,-0.514,-0.2745
-1.895,-0.489,1.406,1.192,-1.6505,0.4585,0.5155,0.3255,-0.2795,-0.755,-0.62,-0.6795,-0.209,-0.5195,-0.273
-1.881,-0.476,1.405,1.1785,-1.643,0.4645,0.5225,0.3335,-0.274,-0.7485,-0.616,-0.6755,-0.2085,-0.5205,-0.2715
-1.8855,-0.479,1.4065,1.182,-1.646,0.464,0.5185,0.33,-0.278,-0.752,-0.618,-0.6785,-0.213,-0.521,-0.272
-1.8925,-0.491,1.4015,1.1915,-1.647,0.4555,0.518,0.329,-0.279,-0.7545,-0.618,-0.68,-0.212,-0.528,-0.272
-1.8895,-0.4935,1.396,1.1915,-1.6425,0.451,0.5165,0.328,-0.279,-0.753,-0.6185,-0.6785,-0.2085,-0.5235,-0.2695
-1.8875,-0.492,1.3955,1.19,-1.6415,0.4515,0.5155,0.3265,-0.279,-0.7515,-0.6195,-0.6785,-0.2065,-0.5245,-0.2695
-1.891,-0.4925,1.3985,1.192,-1.645,0.453,0.517,0.3255,-0.2815,-0.7525,-0.6195,-0.68,-0.2065,-0.529,-0.273
-1.895,-0.4925,1.4025,1.1935,-1.6485,0.455,0.5185,0.326,-0.2805,-0.753,-0.6195,-0.6825,-0.2085,-0.5275,-0.273
-1.8845,-0.4845,1.3995,1.1845,-1.642,0.4575,0.5195,0.3275,-0.2765,-0.7505,-0.618,-0.682,-0.2065,-0.529,-0.27
-1.8855,-0.487,1.3985,1.186,-1.642,0.456,0.519,0.3265,-0.2785,-0.75,-0.6185,-0.6815,-0.2085,-0.531,-0.2715
-1.899,-0.4995,1.3995,1.1995,-1.6495,0.45,0.5205,0.3265,-0.28,-0.7525,-0.6215,-0.684,-0.2165,-0.531,-0.2755
-1.8985,-0.4925,1.406,1.1955,-1.6525,0.457,0.519,0.326,-0.2805,-0.7565,-0.6235,-0.687,-0.2175,-0.527,-0.276
-1.8825,-0.475,1.4075,1.179,-1.645,0.4665,0.521,0.3295,-0.278,-0.7535,-0.62,-0.683,-0.216,-0.5265,-0.2745
-1.869,-0.465,1.404,1.167,-1.6365,0.4695,0.5255,0.331,-0.277,-0.7515,-0.6175,-0.6785,-0.2155,-0.5275,-0.2725
-1.8725,-0.4645,1.408,1.1685,-1.6405,0.472,0.5245,0.332,-0.275,-0.7505,-0.6165,-0.6775,-0.2135,-0.5275,-0.2725
-1.879,-0.468,1.4115,1.1735,-1.645,0.4715,0.5285,0.333,-0.2745,-0.7495,-0.615,-0.678,-0.2135,-0.5255,-0.2755
-1.876,-0.464,1.412,1.17,-1.644,0.474,0.531,0.33,-0.2765,-0.7505,-0.616,-0.6755,-0.2105,-0.522,-0.2735
-1.876,-0.4605,1.4155,1.1685,-1.646,0.4775,0.5295,0.334,-0.272,-0.7475,-0.6125,-0.672,-0.212,-0.522,-0.2725
-1.8745,-0.4615,1.413,1.168,-1.644,0.476,0.534,0.336,-0.273,-0.7485,-0.6115,-0.6715,-0.213,-0.5215,-0.272
-1.8695,-0.46,1.41,1.165,-1.64,0.475,0.5355,0.3355,-0.273,-0.747,-0.609,-0.6695,-0.212,-0.5195,-0.2725
-1.876,-0.4675,1.4085,1.172,-1.6425,0.4705,0.531,0.333,-0.2775,-0.7485,-0.609,-0.671,-0.213,-0.5215,-0.275
-1.8795,-0.4775,1.402,1.1785,-1.641,0.4625,0.528,0.33,-0.2805,-0.751,-0.617,-0.673,-0.214,-0.5245,-0.2755
-1.874,-0.4735,1.4005,1.174,-1.6375,0.4635,0.531,0.333,-0.277,-0.75,-0.6195,-0.6695,-0.2145,-0.526,-0.275
-1.8795,-0.4775,1.402,1.1785,-1.641,0.462,0.532,0.3355,-0.2775,-0.749,-0.616,-0.6685,-0.2125,-0.528,-0.276
-1.8855,-0.486,1.3995,1.186,-1.6425,0.4565,0.5285,0.3315,-0.2805,-0.7505,-0.6175,-0.67,-0.2145,-0.529,-0.2785
-1.888,-0.4915,1.396,1.19,-1.642,0.4525,0.5275,0.3285,-0.2825,-0.756,-0.6205,-0.6725,-0.217,-0.5285,-0.278
-1.893,-0.4945,1.399,1.1935,-1.646,0.4525,0.5265,0.327,-0.2825,-0.756,-0.6195,-0.671,-0.217,-0.526,-0.2765
-1.8925,-0.4935,1.399,1.193,-1.646,0.453,0.528,0.326,-0.283,-0.757,-0.6175,-0.6705,-0.217,-0.5225,-0.2755
-1.894,-0.4945,1.3995,1.194,-1.6465,0.4525,0.531,0.3275,-0.282,-0.757,-0.6165,-0.671,-0.217,-0.525,-0.277
-1.899,-0.503,1.396,1.201,-1.6475,0.447,0.528,0.324,-0.2855,-0.76,-0.6195,-0.6725,-0.219,-0.532,-0.2745
-1.8935,-0.5035,1.3895,1.1985,-1.6415,0.443,0.5255,0.3235,-0.286,-0.761,-0.6185,-0.6725,-0.22,-0.5305,-0.275
-1.8915,-0.4945,1.397,1.193,-1.6445,0.451,0.528,0.3295,-0.279,-0.754,-0.613,-0.6675,-0.2225,-0.5345,-0.2805
-1.8985,-0.4985,1.3995,1.1985,-1.649,0.4505,0.5275,0.331,-0.2805,-0.755,-0.615,-0.668,-0.224,-0.5385,-0.2775
-1.896,-0.501,1.395,1.1985,-1.6455,0.447,0.528,0.329,-0.283,-0.76,-0.617,-0.671,-0.2255,-0.536,-0.276
-1.89,-0.499,1.3905,1.1945,-1.6405,0.4455,0.524,0.3255,-0.286,-0.762,-0.6195,-0.672,-0.221,-0.537,-0.274
-1.898,-0.511,1.387,1.2045,-1.6425,0.438,0.5185,0.322,-0.291,-0.7655,-0.625,-0.677,-0.22,-0.537,-0.272
-1.904,-0.5115,1.3925,1.2075,-1.648,0.4405,0.522,0.322,-0.291,-0.7675,-0.6255,-0.678,-0.2225,-0.538,-0.273
-1.899,-0.5025,1.396,1.201,-1.6475,0.447,0.527,0.324,-0.2885,-0.764,-0.622,-0.6755,-0.221,-0.536,-0.2715
-1.8985,-0.5025,1.396,1.2005,-1.6475,0.447,0.528,0.3265,-0.286,-0.763,-0.6205,-0.676,-0.2195,-0.5355,-0.2695
-1.8955,-0.5005,1.395,1.198,-1.6455,0.447,0.5265,0.325,-0.287,-0.7625,-0.6205,-0.6755,-0.2155,-0.5365,-0.266
-1.894,-0.503,1.391,1.1985,-1.6425,0.444,0.5245,0.3235,-0.29,-0.764,-0.622,-0.677,-0.2165,-0.5315,-0.2655
-1.8975,-0.5025,1.395,1.2,-1.6465,0.4465,0.5255,0.322,-0.2925,-0.766,-0.6215,-0.6785,-0.216,-0.531,-0.2645
-1.8895,-0.4925,1.3975,1.191,-1.6435,0.4525,0.53,0.324,-0.2895,-0.7625,-0.6175,-0.675,-0.2125,-0.535,-0.263
-1.8865,-0.488,1.3985,1.187,-1.6425,0.4555,0.531,0.329,-0.283,-0.7595,-0.616,-0.6765,-0.214,-0.533,-0.264
-1.8885,-0.4855,1.403,1.187,-1.646,0.459,0.529,0.329,-0.2845,-0.7595,-0.6165,-0.6775,-0.2165,-0.5275,-0.266
-1.881,-0.477,1.4045,1.179,-1.6425,0.464,0.527,0.327,-0.286,-0.761,-0.617,-0.677,-0.218,-0.5215,-0.2645
-1.8875,-0.484,1.4035,1.1855,-1.6455,0.4595,0.5225,0.3225,-0.2885,-0.7635,-0.62,-0.6815,-0.217,-0.519,-0.2645
-1.89,-0.4895,1.4005,1.1895,-1.645,0.4555,0.5225,0.324,-0.2895,-0.7615,-0.62,-0.6815,-0.2125,-0.5255,-0.266
-1.891,-0.4885,1.402,1.19,-1.6465,0.4565,0.524,0.324,-0.2895,-0.762,-0.6205,-0.68,-0.2095,-0.5255,-0.264
-1.8915,-0.4905,1.4015,1.191,-1.6465,0.4555,0.5255,0.3225,-0.2915,-0.7625,-0.6195,-0.678,-0.209,-0.524,-0.263
-1.884,-0.4815,1.402,1.1825,-1.643,0.46,0.531,0.3255,-0.289,-0.76,-0.6185,-0.6765,-0.2125,-0.525,-0.2635
-1.891,-0.4875,1.4035,1.189,-1.6475,0.458,0.532,0.324,-0.2905,-0.7625,-0.6215,-0.6795,-0.2145,-0.523,-0.2645
-1.892,-0.4915,1.401,1.1915,-1.6465,0.455,0.5325,0.323,-0.2915,-0.7635,-0.6225,-0.6805,-0.2175,-0.5245,-0.266
-1.887,-0.485,1.4015,1.186,-1.6445,0.4585,0.5345,0.3265,-0.2885,-0.76,-0.621,-0.6785,-0.218,-0.5255,-0.2655
-1.88,-0.48,1.4,1.18,-1.64,0.46,0.535,0.33,-0.285,-0.757,-0.6185,-0.675,-0.218,-0.5255,-0.2665
-1.878,-0.4785,1.3995,1.1785,-1.639,0.4605,0.5365,0.3285,-0.2885,-0.759,-0.6195,-0.676,-0.2215,-0.5295,-0.266
-1.8925,-0.489,1.4035,1.1905,-1.648,0.457,0.5355,0.325,-0.292,-0.7615,-0.623,-0.6795,-0.224,-0.53,-0.2655
-1.8965,-0.4955,1.4005,1.196,-1.6485,0.4525,0.5305,0.3205,-0.2945,-0.7655,-0.6255,-0.681,-0.227,-0.5275,-0.265
-1.894,-0.4995,1.3945,1.1965,-1.644,0.4475,0.5315,0.3205,-0.295,-0.7665,-0.627,-0.681,-0.2275,-0.532,-0.2655
-1.8955,-0.502,1.394,1.199,-1.645,0.446,0.531,0.3225,-0.294,-0.763,-0.625,-0.6785,-0.225,-0.538,-0.2655
-1.9015,-0.509,1.3925,1.205,-1.647,0.442,0.5245,0.318,-0.2975,-0.7655,-0.6265,-0.6805,-0.2235,-0.538,-0.2655
-1.904,-0.5135,1.3905,1.2085,-1.647,0.4385,0.521,0.3125,-0.3015,-0.7715,-0.629,-0.684,-0.224,-0.536,-0.264
-1.903,-0.5095,1.393,1.206,-1.648,0.442,0.523,0.3115,-0.3035,-0.772,-0.629,-0.6815,-0.2215,-0.536,-0.2595
-1.8985,-0.5045,1.394,1.2015,-1.6465,0.4445,0.525,0.3165,-0.3005,-0.768,-0.627,-0.6765,-0.218,-0.532,-0.2605
-1.897,-0.503,1.394,1.2,-1.6455,0.4455,0.5275,0.318,-0.2995,-0.768,-0.625,-0.677,-0.2185,-0.535,-0.26
-1.894,-0.502,1.392,1.198,-1.643,0.445,0.53,0.321,-0.297,-0.767,-0.6255,-0.6795,-0.2215,-0.5385,-0.26
-1.8855,-0.4985,1.387,1.192,-1.6365,0.444,0.5315,0.3235,-0.2945,-0.764,-0.6215,-0.6745,-0.2205,-0.5365,-0.262
-1.893,-0.503,1.39,1.198,-1.6415,0.4435,0.5345,0.322,-0.2955,-0.7635,-0.619,-0.6735,-0.22,-0.5385,-0.2615
-1.8935,-0.502,1.3915,1.198,-1.6425,0.4445,0.5345,0.32,-0.2975,-0.766,-0.6235,-0.6785,-0.226,-0.5355,-0.261
-1.8925,-0.5,1.393,1.196,-1.6425,0.4465,0.536,0.3205,-0.296,-0.7665,-0.626,-0.6785,-0.225,-0.5305,-0.2645
-1.891,-0.499,1.392,1.195,-1.6415,0.4465,0.54,0.324,-0.2925,-0.765,-0.627,-0.6795,-0.221,-0.5305,-0.2665
-1.8975,-0.508,1.3895,1.2025,-1.6435,0.4405,0.538,0.3205,-0.2975,-0.769,-0.6305,-0.686,-0.223,-0.5325,-0.2655
-1.91,-0.5155,1.394,1.213,-1.652,0.4395,0.5345,0.318,-0.2995,-0.7695,-0.6305,-0.6885,-0.223,-0.5395,-0.2655
-1.907,-0.5145,1.3925,1.211,-1.65,0.439,0.534,0.3205,-0.296,-0.767,-0.6275,-0.689,-0.2235,-0.546,-0.265
-1.9035,-0.5185,1.385,1.211,-1.644,0.433,0.531,0.3205,-0.2965,-0.7685,-0.6285,-0.6895,-0.2265,-0.549,-0.2655
-1.904,-0.52,1.384,1.212,-1.644,0.432,0.529,0.32,-0.297,-0.769,-0.6295,-0.6875,-0.227,-0.549,-0.266
-1.908,-0.522,1.386,1.215,-1.647,0.432,0.5365,0.322,-0.2955,-0.7665,-0.6265,-0.6855,-0.2235,-0.544,-0.2655
-1.895,-0.51,1.385,1.2025,-1.64,0.4375,0.5385,0.325,-0.292,-0.7625,-0.6235,-0.682,-0.2215,-0.5385,-0.2635
-1.894,-0.501,1.3935,1.1975,-1.6435,0.446,0.535,0.3255,-0.291,-0.7625,-0.625,-0.682,-0.2225,-0.5355,-0.2635
-1.913,-0.5125,1.4005,1.2125,-1.6565,0.444,0.5255,0.3195,-0.2985,-0.7705,-0.6315,-0.688,-0.225,-0.5315,-0.2615
-1.9125,-0.519,1.3935,1.216,-1.653,0.437,0.518,0.316,-0.301,-0.773,-0.634,-0.6885,-0.2245,-0.532,-0.2605
-1.9095,-0.5195,1.39,1.2145,-1.65,0.4355,0.522,0.3165,-0.301,-0.774,-0.6345,-0.6875,-0.221,-0.536,-0.26
-1.9155,-0.521,1.3945,1.218,-1.655,0.437,0.5195,0.3125,-0.305,-0.778,-0.64,-0.691,-0.2215,-0.5335,-0.258
-1.9045,-0.5075,1.397,1.206,-1.6505,0.445,0.5215,0.3145,-0.303,-0.7745,-0.6375,-0.686,-0.2175,-0.532,-0.2555
-1.8955,-0.497,1.3985,1.1965,-1.647,0.4505,0.5255,0.3165,-0.3005,-0.7735,-0.638,-0.682,-0.214,-0.531,-0.2535
-1.9,-0.501,1.3995,1.2005,-1.6495,0.449,0.527,0.3185,-0.3,-0.7735,-0.641,-0.687,-0.2205,-0.533,-0.253
-1.897,-0.5035,1.394,1.2005,-1.6455,0.445,0.533,0.322,-0.2995,-0.7725,-0.6405,-0.687,-0.223,-0.5405,-0.254
-1.8955,-0.5055,1.39,1.2005,-1.643,0.4425,0.5315,0.3205,-0.3,-0.775,-0.642,-0.6875,-0.226,-0.5405,-0.2575
-1.898,-0.5015,1.3965,1.2,-1.6475,0.4475,0.5275,0.319,-0.3015,-0.774,-0.6405,-0.6885,-0.2275,-0.5375,-0.257
-1.9045,-0.505,1.4,1.2045,-1.6525,0.4475,0.525,0.3155,-0.306,-0.7755,-0.644,-0.6905,-0.227,-0.5345,-0.256
-1.911,-0.505,1.406,1.208,-1.6585,0.4505,0.527,0.3135,-0.307,-0.7785,-0.644,-0.693,-0.2295,-0.53,-0.2585
-1.907,-0.497,1.41,1.202,-1.659,0.4565,0.5275,0.3145,-0.3045,-0.7775,-0.641,-0.6905,-0.2265,-0.5285,-0.2595
-1.895,-0.487,1.408,1.191,-1.6515,0.4605,0.527,0.317,-0.3015,-0.775,-0.6405,-0.6875,-0.2235,-0.5245,-0.2595
-1.89,-0.482,1.408,1.186,-1.649,0.463,0.527,0.3185,-0.3015,-0.776,-0.64,-0.6865,-0.221,-0.522,-0.2565
-1.8965,-0.487,1.4095,1.1915,-1.653,0.4615,0.528,0.317,-0.303,-0.777,-0.642,-0.6875,-0.2215,-0.5225,-0.257
-1.8955,-0.4885,1.4065,1.192,-1.651,0.459,0.5275,0.3155,-0.3045,-0.7785,-0.6415,-0.6875,-0.2195,-0.527,-0.259
-1.891,-0.489,1.402,1.19,-1.6465,0.4565,0.5235,0.3125,-0.3075,-0.7795,-0.642,-0.6865,-0.2165,-0.5245,-0.257
-1.891,-0.483,1.408,1.187,-1.6495,0.4625,0.5255,0.3135,-0.305,-0.776,-0.6395,-0.683,-0.2195,-0.519,-0.258
-1.886,-0.4795,1.4065,1.183,-1.6465,0.4635,0.5295,0.317,-0.302,-0.7745,-0.637,-0.68,-0.2205,-0.525,-0.2595
-1.886,-0.486,1.4,1.186,-1.643,0.457,0.528,0.316,-0.304,-0.7755,-0.637,-0.681,-0.222,-0.5305,-0.262
-1.8885,-0.4885,1.4,1.1885,-1.6445,0.456,0.523,0.312,-0.306,-0.7775,-0.636,-0.682,-0.223,-0.524,-0.262
-1.8895,-0.4885,1.401,1.189,-1.645,0.4565,0.525,0.311,-0.3075,-0.777,-0.634,-0.68,-0.2195,-0.5185,-0.26
-1.884,-0.4815,1.4025,1.183,-1.6435,0.4605,0.527,0.3115,-0.3095,-0.7755,-0.6305,-0.677,-0.218,-0.5205,-0.2595
-1.8805,-0.476,1.404,1.178,-1.6425,0.464,0.53,0.315,-0.3065,-0.773,-0.6255,-0.6725,-0.218,-0.523,-0.259
-1.8835,-0.481,1.4025,1.182,-1.643,0.4605,0.5285,0.316,-0.3055,-0.7735,-0.625,-0.6715,-0.2135,-0.525,-0.257
-1.8855,-0.4835,1.4015,1.1845,-1.6435,0.459,0.525,0.3135,-0.308,-0.7755,-0.626,-0.6735,-0.212,-0.5275,-0.255
-1.8875,-0.49,1.398,1.189,-1.643,0.454,0.5265,0.3145,-0.3065,-0.7735,-0.627,-0.675,-0.2135,-0.532,-0.257
-1.888,-0.4965,1.3915,1.192,-1.6395,0.4475,0.526,0.3145,-0.307,-0.7745,-0.628,-0.675,-0.211,-0.533,-0.256
-1.8925,-0.498,1.3945,1.1955,-1.6435,0.448,0.528,0.317,-0.3045,-0.773,-0.627,-0.6745,-0.2115,-0.5345,-0.2595
-1.8995,-0.4965,1.403,1.198,-1.6515,0.4535,0.5295,0.3145,-0.307,-0.774,-0.629,-0.6765,-0.213,-0.5305,-0.2585
-1.9095,-0.502,1.4075,1.2055,-1.6585,0.4525,0.5265,0.3115,-0.3085,-0.7775,-0.6355,-0.681,-0.215,-0.527,-0.256
-1.9075,-0.506,1.402,1.2065,-1.655,0.448,0.5255,0.312,-0.3065,-0.778,-0.638,-0.6825,-0.2155,-0.5305,-0.259
-1.9085,-0.511,1.3975,1.2095,-1.653,0.4435,0.5265,0.3105,-0.3085,-0.779,-0.636,-0.6845,-0.2145,-0.533,-0.2615
-1.9125,-0.517,1.3955,1.2145,-1.654,0.4395,0.53,0.312,-0.3075,-0.777,-0.638,-0.6845,-0.215,-0.5375,-0.2655
-1.9,-0.506,1.3945,1.203,-1.647,0.4445,0.536,0.3175,-0.304,-0.773,-0.636,-0.68,-0.2185,-0.5365,-0.2655
-1.8985,-0.4985,1.4,1.1985,-1.649,0.4505,0.537,0.3225,-0.3,-0.769,-0.6315,-0.6775,-0.2215,-0.5325,-0.2635
-1.894,-0.4915,1.4025,1.193,-1.6485,0.4555,0.5345,0.3205,-0.3025,-0.7695,-0.633,-0.678,-0.2225,-0.5305,-0.264
-1.8885,-0.4835,1.405,1.186,-1.647,0.4605,0.5325,0.3175,-0.303,-0.771,-0.634,-0.68,-0.224,-0.529,-0.263
-1.8875,-0.4775,1.4105,1.1825,-1.649,0.4665,0.5325,0.3195,-0.3,-0.768,-0.6305,-0.6775,-0.2245,-0.529,-0.263
-1.8865,-0.4755,1.4105,1.181,-1.6485,0.4675,0.5335,0.3195,-0.301,-0.7655,-0.6285,-0.6765,-0.2255,-0.5315,-0.263
-1.883,-0.4745,1.4085,1.179,-1.646,0.467,0.531,0.321,-0.2995,-0.763,-0.625,-0.675,-0.2265,-0.5355,-0.2615
-1.877,-0.471,1.406,1.174,-1.6415,0.4675,0.5325,0.324,-0.297,-0.7605,-0.623,-0.671,-0.2255,-0.534,-0.258
-1.872,-0.4685,1.4035,1.17,-1.638,0.4675,0.531,0.323,-0.2965,-0.7595,-0.6195,-0.668,-0.2215,-0.5305,-0.255
-1.867,-0.4665,1.4005,1.167,-1.6335,0.467,0.5255,0.32,-0.298,-0.7615,-0.6185,-0.669,-0.22,-0.527,-0.2545
-1.8785,-0.479,1.4,1.179,-1.6395,0.4605,0.532,0.3195,-0.2965,-0.762,-0.619,-0.6695,-0.221,-0.5295,-0.2595
-1.885,-0.4895,1.396,1.1875,-1.6405,0.453,0.5325,0.3205,-0.2965,-0.7615,-0.617,-0.669,-0.22,-0.5375,-0.263
-1.887,-0.494,1.393,1.1905,-1.64,0.4495,0.5295,0.32,-0.297,-0.7635,-0.619,-0.6715,-0.2215,-0.539,-0.2615
-1.893,-0.5,1.393,1.1965,-1.643,0.4465,0.5305,0.3175,-0.2995,-0.7655,-0.6215,-0.6735,-0.2215,-0.541,-0.2595
-1.894,-0.503,1.391,1.1985,-1.6425,0.4435,0.5275,0.314,-0.303,-0.768,-0.6245,-0.678,-0.2205,-0.5395,-0.258
-1.8895,-0.501,1.3885,1.1955,-1.639,0.4435,0.527,0.313,-0.303,-0.769,-0.626,-0.68,-0.216,-0.535,-0.2565
-1.89,-0.498,1.392,1.194,-1.641,0.447,0.5265,0.314,-0.304,-0.769,-0.627,-0.681,-0.216,-0.537,-0.256
-1.896,-0.497,1.3995,1.1965,-1.6475,0.4515,0.529,0.316,-0.3025,-0.769,-0.628,-0.684,-0.2235,-0.5295,-0.2565
-1.889,-0.4915,1.398,1.19,-1.6435,0.4535,0.531,0.318,-0.303,-0.7665,-0.625,-0.684,-0.226,-0.5275,-0.257
-1.8935,-0.4915,1.4025,1.1925,-1.648,0.4555,0.531,0.3185,-0.302,-0.7655,-0.6255,-0.6875,-0.2285,-0.5325,-0.258
-1.8975,-0.496,1.4015,1.1965,-1.6495,0.453,0.5285,0.314,-0.305,-0.772,-0.6335,-0.696,-0.233,-0.532,-0.2575
-1.889,-0.4905,1.3985,1.19,-1.644,0.454,0.5285,0.313,-0.3065,-0.7725,-0.634,-0.6965,-0.2315,-0.5325,-0.257
-1.891,-0.4845,1.407,1.188,-1.649,0.4615,0.532,0.3195,-0.3005,-0.7655,-0.6285,-0.694,-0.2305,-0.5325,-0.2585
-1.896,-0.4865,1.4095,1.191,-1.6525,0.4615,0.5305,0.318,-0.303,-0.7675,-0.633,-0.697,-0.2345,-0.53,-0.2585
-1.8935,-0.488,1.4055,1.191,-1.6495,0.459,0.5285,0.3155,-0.3045,-0.77,-0.635,-0.698,-0.238,-0.525,-0.258
-1.8875,-0.4815,1.406,1.1845,-1.6465,0.4625,0.53,0.3185,-0.303,-0.7675,-0.631,-0.6955,-0.2405,-0.523,-0.259
-1.8865,-0.4805,1.4065,1.1835,-1.6465,0.463,0.5305,0.318,-0.304,-0.7685,-0.63,-0.6935,-0.239,-0.521,-0.261
-1.889,-0.4825,1.407,1.1855,-1.648,0.462,0.531,0.3175,-0.303,-0.769,-0.632,-0.6925,-0.2375,-0.5195,-0.2625
-1.888,-0.481,1.4075,1.1845,-1.648,0.463,0.5325,0.321,-0.3015,-0.7675,-0.633,-0.6905,-0.2375,-0.521,-0.2635
-1.8885,-0.4825,1.406,1.1855,-1.647,0.462,0.5315,0.323,-0.3,-0.767,-0.633,-0.69,-0.2355,-0.5245,-0.261
-1.8975,-0.49,1.4075,1.1935,-1.6525,0.459,0.5325,0.3205,-0.301,-0.77,-0.634,-0.6905,-0.2355,-0.5255,-0.2625
-1.899,-0.4945,1.4045,1.197,-1.652,0.455,0.5355,0.3175,-0.302,-0.7715,-0.636,-0.6905,-0.235,-0.5265,-0.264
-1.89,-0.489,1.4005,1.1895,-1.6455,0.4555,0.532,0.319,-0.301,-0.77,-0.637,-0.689,-0.2325,-0.528,-0.26
-1.894,-0.4905,1.4035,1.1925,-1.6485,0.4565,0.5285,0.321,-0.299,-0.769,-0.633,-0.686,-0.2315,-0.531,-0.2585
-1.8905,-0.4915,1.399,1.191,-1.6445,0.4535,0.53,0.3215,-0.2995,-0.7685,-0.633,-0.681,-0.2295,-0.535,-0.2565
-1.874,-0.482,1.392,1.178,-1.633,0.455,0.527,0.322,-0.299,-0.7655,-0.629,-0.6765,-0.2255,-0.534,-0.2555
-1.8805,-0.4855,1.395,1.183,-1.638,0.4545,0.5265,0.3205,-0.2975,-0.7655,-0.627,-0.675,-0.2235,-0.533,-0.2555
-1.891,-0.4935,1.398,1.192,-1.6445,0.452,0.5275,0.319,-0.2995,-0.7675,-0.6295,-0.6755,-0.2235,-0.533,-0.2535
-1.8855,-0.4895,1.396,1.1875,-1.6405,0.453,0.5225,0.3175,-0.3,-0.766,-0.6285,-0.673,-0.221,-0.53,-0.2525
-1.887,-0.492,1.395,1.1895,-1.641,0.4515,0.519,0.315,-0.301,-0.7675,-0.6305,-0.673,-0.216,-0.5295,-0.252
-1.893,-0.4935,1.3995,1.193,-1.6465,0.4535,0.5225,0.3125,-0.3025,-0.7695,-0.6295,-0.675,-0.217,-0.5325,-0.251
-1.892,-0.491,1.401,1.1915,-1.6465,0.455,0.525,0.316,-0.3015,-0.7675,-0.6295,-0.6755,-0.2155,-0.5355,-0.2495
-1.8885,-0.4905,1.3985,1.1895,-1.6435,0.454,0.5275,0.3195,-0.3005,-0.769,-0.633,-0.6765,-0.213,-0.533,-0.2485
-1.892,-0.4935,1.3985,1.1925,-1.6455,0.4525,0.5285,0.3155,-0.3045,-0.7725,-0.636,-0.6795,-0.2155,-0.531,-0.248
-1.8915,-0.4935,1.398,1.1925,-1.645,0.452,0.524,0.316,-0.304,-0.771,-0.6345,-0.68,-0.215,-0.5315,-0.249
-1.885,-0.485,1.4,1.185,-1.6425,0.4575,0.524,0.316,-0.3045,-0.772,-0.635,-0.682,-0.214,-0.5295,-0.249
-1.878,-0.4785,1.3995,1.178,-1.639,0.4605,0.5275,0.315,-0.3025,-0.77,-0.6335,-0.6795,-0.2135,-0.5285,-0.2475
-1.877,-0.4765,1.4005,1.177,-1.6385,0.462,0.5285,0.318,-0.3,-0.768,-0.63,-0.676,-0.2125,-0.527,-0.247
-1.8835,-0.481,1.4025,1.182,-1.6425,0.4605,0.529,0.317,-0.3035,-0.7725,-0.632,-0.6795,-0.212,-0.5285,-0.2485
-1.8835,-0.4835,1.3995,1.1835,-1.6415,0.458,0.527,0.318,-0.302,-0.7705,-0.6295,-0.6785,-0.2115,-0.529,-0.2505
-1.8885,-0.4885,1.4,1.1885,-1.644,0.456,0.5235,0.3185,-0.304,-0.7725,-0.633,-0.6805,-0.2125,-0.5225,-0.2495
-1.886,-0.4845,1.401,1.1855,-1.6435,0.458,0.524,0.316,-0.3055,-0.7755,-0.6335,-0.681,-0.2125,-0.521,-0.249
-1.886,-0.485,1.401,1.1855,-1.6435,0.458,0.5235,0.315,-0.304,-0.7745,-0.6325,-0.6795,-0.2085,-0.5255,-0.248
-1.897,-0.4965,1.401,1.1965,-1.649,0.4525,0.521,0.313,-0.3075,-0.777,-0.634,-0.682,-0.208,-0.525,-0.2445
-1.9015,-0.5005,1.401,1.201,-1.6515,0.45,0.523,0.315,-0.304,-0.7735,-0.63,-0.6795,-0.2075,-0.5255,-0.2455
-1.9065,-0.5065,1.4,1.2065,-1.653,0.4465,0.5245,0.313,-0.3055,-0.773,-0.63,-0.6805,-0.2075,-0.5305,-0.246
-1.905,-0.5035,1.4015,1.204,-1.6535,0.449,0.519,0.3085,-0.312,-0.7775,-0.635,-0.6845,-0.212,-0.5275,-0.2475
-1.906,-0.503,1.403,1.2045,-1.6545,0.45,0.519,0.3085,-0.312,-0.7795,-0.634,-0.6835,-0.214,-0.5245,-0.2505
-1.91,-0.5065,1.4035,1.208,-1.657,0.4485,0.5205,0.3075,-0.3135,-0.78,-0.6355,-0.685,-0.2185,-0.5245,-0.2495
-1.9065,-0.505,1.4015,1.206,-1.654,0.448,0.516,0.3035,-0.3135,-0.782,-0.641,-0.6845,-0.2205,-0.525,-0.2515
-1.9025,-0.5005,1.402,1.2015,-1.6525,0.4505,0.5195,0.3055,-0.3105,-0.78,-0.637,-0.6815,-0.2195,-0.528,-0.2535
-1.896,-0.4915,1.4045,1.194,-1.6505,0.4565,0.5235,0.309,-0.31,-0.7775,-0.6355,-0.6815,-0.2215,-0.525,-0.2555
-1.888,-0.49,1.3985,1.189,-1.6435,0.4545,0.5225,0.3085,-0.31,-0.777,-0.6355,-0.6785,-0.223,-0.5265,-0.2545
-1.8905,-0.487,1.4035,1.1885,-1.647,0.4585,0.5265,0.313,-0.306,-0.77,-0.6265,-0.6725,-0.224,-0.5265,-0.254
-1.885,-0.48,1.405,1.1825,-1.645,0.4625,0.5325,0.3195,-0.299,-0.765,-0.621,-0.6675,-0.2255,-0.5305,-0.255
-1.866,-0.4745,1.3915,1.1705,-1.629,0.4585,0.5335,0.3185,-0.3,-0.7675,-0.622,-0.665,-0.226,-0.535,-0.252
-1.8675,-0.477,1.39,1.172,-1.6285,0.4565,0.5325,0.316,-0.3025,-0.768,-0.621,-0.665,-0.2265,-0.5285,-0.255
-1.883,-0.4825,1.4005,1.1825,-1.6415,0.459,0.532,0.317,-0.2995,-0.766,-0.618,-0.6685,-0.2285,-0.5315,-0.256
-1.8865,-0.485,1.4015,1.186,-1.644,0.458,0.5275,0.316,-0.302,-0.7675,-0.625,-0.6725,-0.229,-0.528,-0.253
-1.887,-0.4915,1.3955,1.1895,-1.6415,0.452,0.5255,0.3135,-0.305,-0.7725,-0.6305,-0.676,-0.228,-0.523,-0.2525
-1.8925,-0.496,1.3965,1.194,-1.6445,0.4505,0.526,0.314,-0.305,-0.773,-0.6265,-0.6755,-0.2265,-0.5305,-0.2515
-1.885,-0.489,1.396,1.187,-1.6405,0.4535,0.527,0.3145,-0.302,-0.7695,-0.624,-0.6725,-0.2245,-0.5285,-0.253
-1.883,-0.4895,1.3935,1.186,-1.638,0.452,0.524,0.313,-0.302,-0.768,-0.624,-0.672,-0.222,-0.53,-0.255
-1.8865,-0.491,1.3955,1.1885,-1.641,0.4525,0.5245,0.3165,-0.302,-0.769,-0.623,-0.6745,-0.2225,-0.532,-0.2555
-1.8895,-0.488,1.4015,1.189,-1.6455,0.4565,0.527,0.315,-0.305,-0.7725,-0.628,-0.6805,-0.2265,-0.526,-0.255
-1.89,-0.485,1.405,1.1875,-1.6475,0.46,0.5285,0.314,-0.3055,-0.773,-0.6305,-0.683,-0.227,-0.524,-0.254
-1.88,-0.482,1.3975,1.181,-1.6385,0.4575,0.532,0.3175,-0.3005,-0.768,-0.6255,-0.6805,-0.2235,-0.527,-0.2535
-1.881,-0.4855,1.3955,1.1835,-1.6385,0.455,0.532,0.313,-0.303,-0.7685,-0.6265,-0.681,-0.226,-0.5275,-0.254
-1.882,-0.481,1.4015,1.1815,-1.6415,0.46,0.5305,0.315,-0.303,-0.7695,-0.6305,-0.685,-0.2285,-0.5255,-0.2555
-1.8885,-0.4845,1.4045,1.1865,-1.6465,0.46,0.5265,0.3155,-0.305,-0.7705,-0.634,-0.69,-0.2255,-0.527,-0.2545
-1.8955,-0.4875,1.408,1.1915,-1.652,0.4605,0.5275,0.3135,-0.307,-0.7725,-0.6365,-0.691,-0.2265,-0.5265,-0.2525
-1.8885,-0.4835,1.405,1.186,-1.6465,0.4605,0.5295,0.317,-0.304,-0.77,-0.6355,-0.6905,-0.2265,-0.526,-0.252
-1.8865,-0.4855,1.4015,1.186,-1.644,0.458,0.528,0.3165,-0.304,-0.771,-0.634,-0.69,-0.228,-0.528,-0.251
-1.8965,-0.49,1.406,1.193,-1.651,0.458,0.53,0.3165,-0.3035,-0.7705,-0.6335,-0.69,-0.23,-0.528,-0.2535
-1.89,-0.488,1.402,1.189,-1.646,0.457,0.529,0.314,-0.3055,-0.7715,-0.6355,-0.69,-0.229,-0.529,-0.2565
-1.884,-0.484,1.3995,1.184,-1.642,0.458,0.528,0.312,-0.306,-0.772,-0.635,-0.687,-0.229,-0.523,-0.256
-1.888,-0.482,1.406,1.185,-1.647,0.462,0.5315,0.316,-0.3025,-0.7685,-0.628,-0.682,-0.226,-0.5165,-0.2555
-1.881,-0.474,1.407,1.1775,-1.644,0.4665,0.533,0.318,-0.2995,-0.7655,-0.6235,-0.6765,-0.2225,-0.5195,-0.252
-1.879,-0.4725,1.406,1.1755,-1.6425,0.4665,0.5335,0.3155,-0.2995,-0.7635,-0.6215,-0.6735,-0.2205,-0.518,-0.2535
-1.888,-0.4835,1.4045,1.186,-1.646,0.4605,0.5315,0.3155,-0.3005,-0.767,-0.6245,-0.6725,-0.217,-0.516,-0.253
-1.8995,-0.496,1.4035,1.1975,-1.6515,0.454,0.526,0.3125,-0.304,-0.773,-0.6305,-0.675,-0.215,-0.5095,-0.2515
-1.9045,-0.5,1.4045,1.2025,-1.6545,0.4525,0.5205,0.3095,-0.307,-0.774,-0.63,-0.6775,-0.214,-0.5065,-0.2555
-1.907,-0.498,1.409,1.2025,-1.658,0.4555,0.522,0.3115,-0.304,-0.771,-0.6275,-0.676,-0.2125,-0.5045,-0.2575
-1.9025,-0.4935,1.4085,1.198,-1.6555,0.4575,0.525,0.3125,-0.3015,-0.771,-0.6265,-0.6755,-0.2145,-0.501,-0.2585
-1.891,-0.485,1.4065,1.188,-1.649,0.461,0.524,0.314,-0.2985,-0.768,-0.626,-0.675,-0.214,-0.506,-0.259
-1.8875,-0.476,1.4115,1.182,-1.6495,0.4675,0.5305,0.3175,-0.295,-0.763,-0.6265,-0.6755,-0.2125,-0.5025,-0.258
-1.89,-0.476,1.4135,1.183,-1.6515,0.4685,0.534,0.32,-0.295,-0.764,-0.6275,-0.6785,-0.213,-0.503,-0.257
-1.896,-0.479,1.4165,1.1875,-1.656,0.4685,0.5345,0.323,-0.2945,-0.7635,-0.629,-0.68,-0.211,-0.507,-0.259
-1.905,-0.489,1.416,1.197,-1.66,0.4635,0.5345,0.3225,-0.297,-0.7655,-0.63,-0.6805,-0.205,-0.5105,-0.2595
-1.904,-0.492,1.412,1.198,-1.658,0.46,0.5345,0.32,-0.2965,-0.765,-0.627,-0.677,-0.202,-0.5065,-0.2595
-1.9045,-0.4855,1.419,1.195,-1.662,0.4665,0.542,0.322,-0.2935,-0.762,-0.627,-0.6785,-0.206,-0.4975,-0.261
-1.9095,-0.486,1.4235,1.1975,-1.6665,0.469,0.546,0.322,-0.294,-0.7615,-0.629,-0.682,-0.209,-0.4985,-0.2645
-1.913,-0.487,1.4255,1.2,-1.6695,0.469,0.5465,0.321,-0.2945,-0.7615,-0.6265,-0.6805,-0.208,-0.4935,-0.2665
-1.91,-0.4785,1.4315,1.1945,-1.671,0.4765,0.552,0.326,-0.29,-0.7585,-0.622,-0.6785,-0.208,-0.487,-0.2675
-1.89,-0.4595,1.4305,1.175,-1.66,0.4855,0.558,0.3305,-0.286,-0.7545,-0.617,-0.6725,-0.208,-0.486,-0.268
-1.8775,-0.4475,1.43,1.1625,-1.6535,0.491,0.5615,0.3365,-0.28,-0.75,-0.6135,-0.6675,-0.21,-0.4805,-0.267
-1.8875,-0.4515,1.436,1.1695,-1.6615,0.492,0.5675,0.339,-0.277,-0.746,-0.609,-0.669,-0.2185,-0.477,-0.2745
-1.8835,-0.445,1.4385,1.164,-1.661,0.497,0.5725,0.3425,-0.275,-0.7445,-0.608,-0.6665,-0.225,-0.472,-0.2785
-1.871,-0.429,1.442,1.15,-1.6565,0.5065,0.571,0.347,-0.271,-0.7435,-0.608,-0.663,-0.227,-0.469,-0.276
-1.8755,-0.427,1.4485,1.151,-1.662,0.511,0.566,0.345,-0.272,-0.7435,-0.608,-0.6645,-0.23,-0.4655,-0.2795
-1.8765,-0.4255,1.451,1.151,-1.6635,0.513,0.563,0.343,-0.2715,-0.743,-0.609,-0.6655,-0.2315,-0.466,-0.283
-1.8775,-0.4305,1.447,1.154,-1.662,0.5085,0.559,0.3395,-0.275,-0.746,-0.612,-0.6675,-0.233,-0.4715,-0.285
-1.8835,-0.4335,1.45,1.1585,-1.667,0.508,0.562,0.34,-0.2755,-0.7475,-0.6145,-0.669,-0.233,-0.469,-0.2865
-1.885,-0.4375,1.4475,1.161,-1.666,0.505,0.5685,0.343,-0.2735,-0.7465,-0.613,-0.6695,-0.23,-0.4725,-0.2845
-1.877,-0.4415,1.4355,1.159,-1.6565,0.497,0.566,0.3425,-0.273,-0.744,-0.6105,-0.667,-0.2225,-0.477,-0.284
-1.877,-0.442,1.435,1.1595,-1.656,0.4965,0.566,0.3455,-0.2705,-0.7425,-0.6115,-0.6685,-0.2205,-0.478,-0.284
-1.8875,-0.448,1.4395,1.1675,-1.663,0.4955,0.569,0.3445,-0.2715,-0.745,-0.616,-0.6745,-0.227,-0.4745,-0.286
-1.887,-0.444,1.443,1.1655,-1.665,0.4995,0.569,0.3445,-0.27,-0.7435,-0.613,-0.6725,-0.23,-0.47,-0.287
-1.887,-0.444,1.443,1.1655,-1.665,0.4995,0.573,0.348,-0.27,-0.742,-0.6115,-0.672,-0.2285,-0.469,-0.2845
-1.8815,-0.443,1.4385,1.162,-1.66,0.498,0.581,0.35,-0.2685,-0.742,-0.6135,-0.6715,-0.229,-0.4735,-0.288
-1.8735,-0.4355,1.4385,1.1545,-1.656,0.5015,0.58,0.35,-0.2655,-0.739,-0.612,-0.6715,-0.2265,-0.4755,-0.2885
-1.8765,-0.4355,1.4415,1.156,-1.659,0.503,0.58,0.3545,-0.2615,-0.735,-0.61,-0.6715,-0.225,-0.475,-0.2895
-1.8755,-0.441,1.435,1.1585,-1.655,0.497,0.584,0.355,-0.2605,-0.733,-0.6085,-0.6695,-0.222,-0.483,-0.2905
-1.8825,-0.448,1.4345,1.165,-1.658,0.493,0.58,0.353,-0.2625,-0.7355,-0.6105,-0.6705,-0.2185,-0.483,-0.2865
-1.8765,-0.447,1.4295,1.1615,-1.653,0.491,0.5795,0.3595,-0.2565,-0.731,-0.607,-0.6685,-0.2125,-0.483,-0.2865
-1.862,-0.4425,1.4195,1.1525,-1.641,0.4885,0.5835,0.3585,-0.2575,-0.73,-0.605,-0.666,-0.2065,-0.485,-0.2865
-1.865,-0.436,1.429,1.1505,-1.647,0.4965,0.588,0.362,-0.256,-0.7295,-0.6055,-0.6695,-0.2085,-0.485,-0.288
-1.857,-0.431,1.4255,1.144,-1.641,0.497,0.587,0.367,-0.251,-0.724,-0.6,-0.667,-0.201,-0.486,-0.2905
-1.858,-0.432,1.426,1.145,-1.642,0.497,0.5855,0.3675,-0.252,-0.726,-0.601,-0.6675,-0.1985,-0.484,-0.288
-1.8675,-0.4335,1.434,1.1505,-1.6505,0.5,0.585,0.3705,-0.249,-0.7235,-0.598,-0.6675,-0.1995,-0.4855,-0.287
-1.866,-0.4395,1.4265,1.1525,-1.646,0.4935,0.5795,0.37,-0.2485,-0.723,-0.596,-0.666,-0.1955,-0.4915,-0.2875
-1.859,-0.441,1.418,1.15,-1.6385,0.4885,0.5775,0.3685,-0.249,-0.723,-0.5985,-0.6655,-0.192,-0.499,-0.285
-1.86,-0.4475,1.4125,1.154,-1.636,0.4825,0.5785,0.37,-0.2465,-0.7185,-0.596,-0.66,-0.188,-0.509,-0.285
-1.876,-0.47,1.406,1.173,-1.641,0.468,0.576,0.369,-0.25,-0.724,-0.5995,-0.6655,-0.19,-0.5135,-0.283
-1.871,-0.478,1.393,1.1745,-1.632,0.4575,0.5695,0.3655,-0.2555,-0.728,-0.6005,-0.665,-0.188,-0.513,-0.276
-1.8645,-0.4715,1.393,1.168,-1.6285,0.461,0.5665,0.369,-0.251,-0.7215,-0.5925,-0.6545,-0.181,-0.521,-0.271
-1.861,-0.468,1.393,1.1645,-1.627,0.4625,0.5605,0.3665,-0.2485,-0.716,-0.5855,-0.6515,-0.1745,-0.522,-0.269
-1.848,-0.4665,1.3815,1.157,-1.6145,0.457,0.5535,0.3615,-0.2525,-0.72,-0.5875,-0.65,-0.17,-0.5175,-0.266
-1.8555,-0.4735,1.382,1.1645,-1.619,0.4545,0.5495,0.36,-0.255,-0.722,-0.5905,-0.6495,-0.17,-0.519,-0.2645
-1.8685,-0.485,1.3835,1.177,-1.626,0.449,0.5375,0.352,-0.258,-0.7235,-0.589,-0.65,-0.17,-0.5205,-0.262
-1.8675,-0.486,1.3815,1.1765,-1.6245,0.4475,0.536,0.3485,-0.261,-0.7265,-0.5885,-0.6485,-0.1695,-0.521,-0.2565
-1.868,-0.486,1.3815,1.177,-1.625,0.4475,0.5315,0.3445,-0.265,-0.7275,-0.589,-0.649,-0.1755,-0.521,-0.256
-1.873,-0.49,1.383,1.1815,-1.628,0.4465,0.521,0.34,-0.2675,-0.7295,-0.5895,-0.648,-0.1785,-0.527,-0.2525
-1.871,-0.493,1.3785,1.182,-1.625,0.443,0.513,0.336,-0.2705,-0.7345,-0.5925,-0.648,-0.175,-0.529,-0.244
-1.866,-0.493,1.373,1.1795,-1.62,0.44,0.5065,0.33,-0.276,-0.7385,-0.5955,-0.65,-0.175,-0.5265,-0.242
-1.8645,-0.4905,1.3745,1.1775,-1.6195,0.442,0.508,0.3255,-0.279,-0.739,-0.5945,-0.6475,-0.173,-0.5285,-0.2385
-1.871,-0.4955,1.375,1.183,-1.623,0.4395,0.4965,0.317,-0.2865,-0.7455,-0.6005,-0.65,-0.174,-0.53,-0.234
-1.875,-0.496,1.379,1.1855,-1.627,0.4415,0.4855,0.308,-0.2975,-0.7545,-0.6095,-0.654,-0.1785,-0.527,-0.23
-1.8635,-0.486,1.3775,1.175,-1.6205,0.446,0.479,0.3005,-0.3055,-0.7615,-0.6115,-0.654,-0.18,-0.5205,-0.223
-1.8655,-0.489,1.3765,1.177,-1.621,0.444,0.471,0.291,-0.3145,-0.7705,-0.618,-0.6585,-0.1865,-0.5145,-0.2225
-1.877,-0.4975,1.3795,1.187,-1.628,0.441,0.4645,0.2795,-0.327,-0.7815,-0.6275,-0.665,-0.1955,-0.5115,-0.2215
-1.873,-0.493,1.38,1.183,-1.6265,0.4435,0.46,0.2715,-0.335,-0.787,-0.627,-0.664,-0.201,-0.5085,-0.2175
-1.8705,-0.488,1.3825,1.179,-1.627,0.4475,0.463,0.272,-0.3335,-0.785,-0.6265,-0.663,-0.2045,-0.5025,-0.2175
-1.872,-0.485,1.387,1.1785,-1.6295,0.451,0.468,0.271,-0.333,-0.789,-0.629,-0.6645,-0.2065,-0.5025,-0.2195
-1.871,-0.4825,1.3885,1.177,-1.63,0.453,0.469,0.269,-0.336,-0.79,-0.63,-0.6655,-0.2095,-0.504,-0.2195
-1.8715,-0.4795,1.392,1.1755,-1.632,0.456,0.468,0.2705,-0.335,-0.7865,-0.63,-0.6645,-0.211,-0.5025,-0.2165
-1.875,-0.482,1.393,1.1785,-1.634,0.4555,0.471,0.2715,-0.333,-0.787,-0.63,-0.662,-0.2085,-0.505,-0.2165
-1.884,-0.4955,1.3885,1.1895,-1.636,0.4465,0.471,0.2695,-0.337,-0.7905,-0.6325,-0.664,-0.2045,-0.5095,-0.2135
-1.8885,-0.502,1.3865,1.1955,-1.6375,0.442,0.4685,0.2655,-0.3415,-0.7955,-0.6385,-0.669,-0.204,-0.5085,-0.212
-1.895,-0.5005,1.3945,1.1975,-1.6445,0.447,0.4675,0.263,-0.3445,-0.7985,-0.6425,-0.673,-0.2095,-0.5015,-0.2095
-1.8945,-0.493,1.4015,1.1935,-1.648,0.454,0.4665,0.2615,-0.347,-0.8005,-0.643,-0.6725,-0.2095,-0.497,-0.2045
-1.884,-0.4865,1.3975,1.1855,-1.6405,0.4555,0.462,0.259,-0.349,-0.8,-0.6435,-0.671,-0.207,-0.497,-0.2
-1.8805,-0.4925,1.388,1.1865,-1.6345,0.4475,0.459,0.2565,-0.3495,-0.7995,-0.643,-0.6715,-0.2065,-0.5005,-0.193
-1.8715,-0.4955,1.376,1.1835,-1.6235,0.44,0.46,0.2565,-0.348,-0.799,-0.6395,-0.6665,-0.2005,-0.5015,-0.187
-1.8645,-0.4925,1.3725,1.1785,-1.6185,0.44,0.4595,0.2585,-0.3465,-0.797,-0.636,-0.662,-0.1985,-0.501,-0.1855
-1.857,-0.4955,1.362,1.176,-1.6095,0.433,0.457,0.2585,-0.346,-0.795,-0.633,-0.661,-0.197,-0.4995,-0.1845
-1.8545,-0.497,1.3575,1.176,-1.606,0.4305,0.4565,0.2585,-0.347,-0.795,-0.6305,-0.6585,-0.196,-0.49,-0.182
-1.856,-0.491,1.365,1.174,-1.6105,0.437,0.45,0.2555,-0.349,-0.7965,-0.6305,-0.6565,-0.1955,-0.4805,-0.1765
-1.8535,-0.4895,1.3635,1.1715,-1.6085,0.437,0.442,0.2525,-0.3505,-0.7965,-0.631,-0.6525,-0.191,-0.4735,-0.1705
-1.852,-0.4895,1.363,1.1705,-1.6075,0.4365,0.4385,0.2505,-0.3495,-0.794,-0.6285,-0.6515,-0.1915,-0.471,-0.169
-1.8475,-0.4845,1.363,1.166,-1.6055,0.4395,0.441,0.2475,-0.348,-0.792,-0.624,-0.649,-0.191,-0.469,-0.17
-1.8485,-0.482,1.3665,1.165,-1.6075,0.4425,0.4395,0.25,-0.3475,-0.79,-0.622,-0.6465,-0.1935,-0.46,-0.1675
-1.847,-0.482,1.3655,1.1645,-1.6065,0.442,0.4335,0.247,-0.35,-0.79,-0.6205,-0.646,-0.1925,-0.453,-0.1655
-1.8375,-0.4865,1.351,1.162,-1.594,0.4325,0.425,0.239,-0.355,-0.7935,-0.623,-0.647,-0.186,-0.447,-0.163
-1.8455,-0.4915,1.3545,1.1685,-1.6,0.4315,0.423,0.2375,-0.355,-0.7935,-0.6225,-0.6495,-0.187,-0.447,-0.1605
-1.856,-0.489,1.367,1.1725,-1.6115,0.439,0.4335,0.241,-0.353,-0.79,-0.615,-0.6455,-0.1865,-0.4545,-0.162
-1.856,-0.491,1.365,1.1735,-1.6105,0.437,0.4335,0.2475,-0.3475,-0.787,-0.614,-0.646,-0.185,-0.453,-0.1645
-1.867,-0.507,1.36,1.187,-1.6135,0.4265,0.432,0.249,-0.347,-0.79,-0.622,-0.6515,-0.1845,-0.4575,-0.167
-1.869,-0.5165,1.3525,1.193,-1.611,0.418,0.438,0.25,-0.3475,-0.789,-0.625,-0.652,-0.1835,-0.4715,-0.1695
-1.874,-0.5235,1.3505,1.1985,-1.612,0.4135,0.443,0.256,-0.342,-0.783,-0.6175,-0.65,-0.1805,-0.4725,-0.1715
-1.881,-0.534,1.347,1.2075,-1.614,0.4065,0.4425,0.254,-0.3445,-0.7855,-0.6195,-0.6535,-0.1755,-0.4745,-0.1715
-1.871,-0.5295,1.3415,1.2,-1.606,0.406,0.4405,0.254,-0.3445,-0.784,-0.62,-0.654,-0.173,-0.4775,-0.17
-1.869,-0.528,1.3415,1.1985,-1.6055,0.4065,0.4405,0.2555,-0.342,-0.7825,-0.616,-0.652,-0.1705,-0.48,-0.1685
-1.867,-0.527,1.34,1.197,-1.6035,0.4065,0.443,0.2575,-0.3415,-0.784,-0.617,-0.6495,-0.17,-0.484,-0.1665
-1.8565,-0.515,1.3415,1.1855,-1.599,0.4135,0.449,0.2605,-0.3395,-0.783,-0.616,-0.646,-0.168,-0.481,-0.1635
-1.842,-0.495,1.3465,1.1685,-1.5945,0.426,0.458,0.26,-0.339,-0.782,-0.613,-0.6435,-0.17,-0.4835,-0.1665
-1.8215,-0.471,1.3505,1.146,-1.586,0.44,0.4685,0.266,-0.3335,-0.777,-0.6085,-0.6385,-0.1745,-0.483,-0.17
-1.813,-0.4585,1.3545,1.1355,-1.5835,0.448,0.475,0.272,-0.3265,-0.772,-0.6045,-0.635,-0.1775,-0.477,-0.1725
-1.811,-0.458,1.3535,1.1345,-1.5825,0.448,0.4855,0.2785,-0.322,-0.7695,-0.6015,-0.633,-0.181,-0.478,-0.177
-1.812,-0.4665,1.3455,1.1395,-1.579,0.4395,0.4895,0.282,-0.32,-0.769,-0.604,-0.635,-0.183,-0.488,-0.182
-1.822,-0.468,1.3535,1.145,-1.588,0.443,0.4915,0.285,-0.3175,-0.769,-0.603,-0.638,-0.1865,-0.4895,-0.1895
-1.8315,-0.465,1.3665,1.148,-1.599,0.451,0.499,0.2905,-0.3135,-0.768,-0.603,-0.6405,-0.1915,-0.4875,-0.198
-1.8435,-0.4665,1.3765,1.155,-1.61,0.455,0.503,0.29,-0.315,-0.769,-0.607,-0.647,-0.196,-0.491,-0.2055
-1.855,-0.4675,1.3875,1.1615,-1.621,0.4595,0.5085,0.29,-0.316,-0.77,-0.6085,-0.652,-0.2025,-0.49,-0.2125
-1.8575,-0.467,1.39,1.1625,-1.624,0.4615,0.5095,0.2925,-0.316,-0.77,-0.6125,-0.6565,-0.2055,-0.4905,-0.217
-1.864,-0.4705,1.394,1.167,-1.629,0.4615,0.515,0.299,-0.3115,-0.766,-0.6095,-0.6565,-0.2045,-0.5,-0.2195
-1.8685,-0.4755,1.393,1.172,-1.631,0.459,0.5175,0.3025,-0.308,-0.764,-0.611,-0.6585,-0.2065,-0.5045,-0.225
-1.87,-0.4735,1.3965,1.172,-1.6335,0.4615,0.5155,0.3,-0.3095,-0.764,-0.6125,-0.66,-0.209,-0.5005,-0.2285
-1.8795,-0.482,1.3975,1.1805,-1.6385,0.458,0.517,0.301,-0.308,-0.7625,-0.6115,-0.661,-0.2075,-0.505,-0.229
-1.8775,-0.4895,1.388,1.1835,-1.6325,0.4495,0.5155,0.299,-0.309,-0.764,-0.6165,-0.6635,-0.2055,-0.5075,-0.231
-1.877,-0.489,1.388,1.183,-1.6325,0.4495,0.5135,0.294,-0.3115,-0.767,-0.6175,-0.661,-0.2025,-0.5045,-0.231
-1.8925,-0.4925,1.4,1.1925,-1.6465,0.454,0.511,0.294,-0.314,-0.7705,-0.619,-0.6615,-0.203,-0.504,-0.23
-1.8925,-0.4885,1.4045,1.1905,-1.6485,0.458,0.515,0.295,-0.3135,-0.769,-0.6195,-0.663,-0.2075,-0.503,-0.2335
-1.888,-0.485,1.403,1.1865,-1.6455,0.4595,0.5205,0.297,-0.312,-0.7685,-0.6215,-0.6635,-0.2075,-0.5015,-0.2385
-1.8995,-0.4905,1.409,1.195,-1.654,0.459,0.518,0.293,-0.316,-0.772,-0.625,-0.67,-0.21,-0.4995,-0.2415
-1.9045,-0.4915,1.4135,1.198,-1.659,0.461,0.519,0.2945,-0.314,-0.77,-0.625,-0.673,-0.213,-0.5025,-0.243
-1.907,-0.49,1.417,1.1985,-1.662,0.4635,0.525,0.3,-0.3125,-0.77,-0.626,-0.672,-0.2115,-0.508,-0.2445
-1.908,-0.493,1.4145,1.2005,-1.661,0.4605,0.5255,0.299,-0.315,-0.7745,-0.627,-0.672,-0.211,-0.5115,-0.245
-1.901,-0.4905,1.4105,1.1955,-1.656,0.46,0.528,0.299,-0.316,-0.773,-0.6255,-0.671,-0.21,-0.5165,-0.2445
-1.8935,-0.491,1.402,1.192,-1.6475,0.4555,0.5305,0.295,-0.319,-0.7765,-0.6315,-0.6715,-0.2075,-0.5195,-0.2405
-1.9,-0.503,1.397,1.2015,-1.6485,0.447,0.529,0.2975,-0.3195,-0.7815,-0.6365,-0.676,-0.208,-0.5195,-0.24
-1.9165,-0.515,1.4015,1.2155,-1.659,0.4435,0.532,0.299,-0.3195,-0.782,-0.639,-0.679,-0.2125,-0.529,-0.2415
-1.9265,-0.5245,1.402,1.2255,-1.664,0.4385,0.5325,0.296,-0.323,-0.788,-0.645,-0.683,-0.2195,-0.536,-0.2415
-1.9315,-0.5305,1.401,1.231,-1.666,0.4355,0.5295,0.293,-0.3285,-0.7945,-0.651,-0.6895,-0.223,-0.5345,-0.2435
-1.9315,-0.5315,1.3995,1.2315,-1.6655,0.434,0.53,0.291,-0.3295,-0.795,-0.6515,-0.6905,-0.222,-0.5385,-0.2435
-1.9395,-0.538,1.401,1.2385,-1.67,0.4315,0.527,0.2895,-0.333,-0.7965,-0.6535,-0.6935,-0.2275,-0.54,-0.2415
-1.9425,-0.5465,1.396,1.2445,-1.669,0.4245,0.523,0.2845,-0.339,-0.8035,-0.662,-0.699,-0.2335,-0.5405,-0.238
-1.9385,-0.5455,1.393,1.242,-1.6655,0.424,0.5265,0.287,-0.3365,-0.8025,-0.661,-0.6985,-0.237,-0.5415,-0.239
-1.9325,-0.54,1.3925,1.236,-1.6625,0.4265,0.527,0.2845,-0.3365,-0.802,-0.6585,-0.695,-0.2355,-0.5415,-0.2375
-1.919,-0.5305,1.3885,1.225,-1.6535,0.429,0.53,0.2865,-0.3355,-0.8005,-0.6555,-0.69,-0.2325,-0.542,-0.234
-1.9145,-0.5275,1.387,1.221,-1.651,0.43,0.5315,0.29,-0.332,-0.795,-0.6485,-0.688,-0.2335,-0.5405,-0.232
-1.907,-0.524,1.383,1.2155,-1.645,0.4295,0.526,0.285,-0.3335,-0.798,-0.65,-0.6885,-0.2325,-0.5375,-0.227
-1.905,-0.519,1.386,1.212,-1.6455,0.4335,0.5245,0.286,-0.3335,-0.7965,-0.6485,-0.687,-0.234,-0.5295,-0.2275
-1.918,-0.528,1.3895,1.223,-1.6535,0.431,0.5255,0.2835,-0.3345,-0.7965,-0.647,-0.6885,-0.237,-0.529,-0.23
-1.912,-0.524,1.3885,1.218,-1.6505,0.4325,0.527,0.2845,-0.333,-0.7955,-0.6465,-0.6885,-0.2375,-0.528,-0.2295
-1.895,-0.509,1.3865,1.202,-1.6405,0.4385,0.529,0.2875,-0.331,-0.791,-0.6415,-0.684,-0.2325,-0.5255,-0.2285
-1.8915,-0.508,1.3835,1.1995,-1.6375,0.438,0.5275,0.2855,-0.3315,-0.792,-0.642,-0.687,-0.232,-0.5275,-0.229
-1.8955,-0.515,1.3805,1.2055,-1.638,0.4325,0.526,0.2835,-0.334,-0.7925,-0.642,-0.69,-0.232,-0.53,-0.2325
-1.903,-0.521,1.382,1.212,-1.6425,0.4305,0.5265,0.2845,-0.3335,-0.7925,-0.6425,-0.6905,-0.233,-0.535,-0.234
-1.904,-0.523,1.381,1.2135,-1.6425,0.429,0.5255,0.2855,-0.333,-0.793,-0.642,-0.6905,-0.2345,-0.538,-0.234
-1.9015,-0.525,1.3765,1.2135,-1.639,0.4255,0.5245,0.284,-0.3345,-0.792,-0.6415,-0.6885,-0.232,-0.5395,-0.2345
-1.9025,-0.5215,1.3805,1.212,-1.6415,0.4295,0.5265,0.2865,-0.3325,-0.791,-0.642,-0.688,-0.233,-0.5395,-0.2325
-1.8985,-0.517,1.3815,1.2075,-1.64,0.4325,0.5265,0.288,-0.3305,-0.7885,-0.638,-0.6835,-0.23,-0.5395,-0.2325
-1.902,-0.5185,1.3835,1.2105,-1.643,0.4325,0.5235,0.2875,-0.329,-0.7865,-0.6365,-0.681,-0.229,-0.5425,-0.233
-1.9055,-0.5235,1.382,1.2145,-1.644,0.4295,0.5225,0.286,-0.3305,-0.7875,-0.637,-0.682,-0.2285,-0.54,-0.233
-1.909,-0.532,1.377,1.2205,-1.643,0.4225,0.521,0.284,-0.334,-0.7905,-0.641,-0.684,-0.229,-0.5455,-0.2325
-1.9105,-0.5325,1.3785,1.2215,-1.6445,0.423,0.521,0.2845,-0.335,-0.7925,-0.6425,-0.6815,-0.228,-0.55,-0.23
-1.911,-0.5305,1.3805,1.221,-1.6455,0.425,0.5205,0.285,-0.3325,-0.7895,-0.637,-0.677,-0.2225,-0.54,-0.2305
-1.9145,-0.5325,1.382,1.2235,-1.6485,0.4245,0.522,0.286,-0.3325,-0.789,-0.6405,-0.6785,-0.2215,-0.538,-0.2295
-1.898,-0.5175,1.3805,1.208,-1.6395,0.4315,0.525,0.2875,-0.331,-0.7895,-0.639,-0.6765,-0.2195,-0.5355,-0.2285
-1.888,-0.5135,1.3745,1.2005,-1.631,0.4305,0.521,0.2845,-0.3305,-0.7875,-0.6375,-0.6755,-0.2155,-0.5335,-0.2295
-1.899,-0.5235,1.3755,1.2115,-1.6375,0.426,0.5185,0.285,-0.3325,-0.7895,-0.642,-0.68,-0.2185,-0.54,-0.2285
-1.904,-0.522,1.382,1.213,-1.643,0.43,0.516,0.2835,-0.3345,-0.792,-0.644,-0.683,-0.222,-0.5375,-0.226
-1.904,-0.519,1.385,1.2115,-1.645,0.433,0.516,0.281,-0.336,-0.793,-0.644,-0.682,-0.219,-0.5315,-0.2245
-1.909,-0.525,1.384,1.217,-1.6465,0.4295,0.519,0.2825,-0.3375,-0.794,-0.6455,-0.6815,-0.2185,-0.5315,-0.2255
-1.9025,-0.5245,1.378,1.214,-1.6405,0.4265,0.517,0.284,-0.335,-0.792,-0.6445,-0.679,-0.2215,-0.5335,-0.224
-1.8975,-0.524,1.3735,1.211,-1.6355,0.4245,0.519,0.285,-0.3325,-0.7905,-0.6445,-0.679,-0.225,-0.5325,-0.225
-1.905,-0.531,1.3735,1.218,-1.6395,0.4215,0.5215,0.2825,-0.335,-0.7915,-0.6475,-0.6815,-0.227,-0.533,-0.2275
-1.909,-0.5305,1.379,1.2195,-1.644,0.4245,0.5215,0.2845,-0.333,-0.789,-0.645,-0.68,-0.226,-0.534,-0.2255
-1.906,-0.528,1.3785,1.217,-1.6425,0.425,0.5175,0.283,-0.3345,-0.791,-0.65,-0.683,-0.2255,-0.5325,-0.2235
-1.903,-0.526,1.3775,1.2145,-1.64,0.4255,0.517,0.279,-0.3395,-0.7955,-0.654,-0.685,-0.222,-0.5295,-0.2245
-1.914,-0.5325,1.382,1.223,-1.648,0.425,0.5175,0.2785,-0.3405,-0.796,-0.6545,-0.6905,-0.2245,-0.5245,-0.2245
-1.9025,-0.5245,1.3775,1.2135,-1.64,0.4265,0.518,0.282,-0.3345,-0.7905,-0.6485,-0.687,-0.2215,-0.529,-0.221
-1.8885,-0.513,1.3755,1.2005,-1.632,0.4315,0.517,0.2845,-0.33,-0.787,-0.644,-0.6795,-0.216,-0.532,-0.2225
-1.9015,-0.5165,1.3845,1.209,-1.643,0.434,0.515,0.286,-0.331,-0.7865,-0.646,-0.681,-0.223,-0.5275,-0.2275
-1.904,-0.5195,1.3845,1.2115,-1.6445,0.433,0.5205,0.288,-0.3305,-0.7845,-0.6455,-0.6825,-0.2265,-0.5335,-0.229
-1.908,-0.53,1.378,1.219,-1.643,0.424,0.517,0.283,-0.3345,-0.791,-0.6485,-0.688,-0.2265,-0.5365,-0.228
-1.9115,-0.533,1.378,1.2225,-1.6445,0.4225,0.5175,0.2855,-0.333,-0.7915,-0.647,-0.688,-0.224,-0.536,-0.228
-1.908,-0.532,1.376,1.22,-1.642,0.422,0.5185,0.286,-0.333,-0.79,-0.646,-0.6865,-0.223,-0.5365,-0.2285
-1.91,-0.5325,1.3775,1.2215,-1.6435,0.4225,0.517,0.2855,-0.334,-0.791,-0.645,-0.6855,-0.221,-0.535,-0.226
-1.9035,-0.531,1.3725,1.2175,-1.638,0.421,0.5215,0.29,-0.3275,-0.786,-0.6425,-0.6835,-0.2175,-0.5385,-0.228
-1.904,-0.5345,1.3695,1.219,-1.637,0.4175,0.5225,0.2915,-0.3285,-0.7845,-0.6425,-0.6835,-0.221,-0.5415,-0.229
-1.9075,-0.5275,1.38,1.2175,-1.644,0.426,0.519,0.289,-0.3305,-0.7865,-0.6435,-0.6855,-0.2225,-0.535,-0.226
-1.9065,-0.5295,1.377,1.218,-1.642,0.424,0.5125,0.2825,-0.335,-0.793,-0.65,-0.6905,-0.22,-0.5285,-0.226
-1.904,-0.528,1.376,1.216,-1.64,0.424,0.515,0.283,-0.3365,-0.7935,-0.6505,-0.6905,-0.2195,-0.531,-0.225
-1.887,-0.511,1.376,1.199,-1.6315,0.433,0.5215,0.2885,-0.33,-0.7865,-0.6455,-0.6845,-0.221,-0.5295,-0.222
-1.8855,-0.5115,1.3735,1.1985,-1.6295,0.431,0.523,0.2895,-0.3285,-0.7855,-0.643,-0.6835,-0.2265,-0.527,-0.2255
-1.894,-0.517,1.377,1.2055,-1.6355,0.43,0.519,0.2875,-0.33,-0.789,-0.6445,-0.6875,-0.2305,-0.529,-0.2295
-1.899,-0.5155,1.3835,1.207,-1.641,0.434,0.517,0.2875,-0.3285,-0.788,-0.6445,-0.686,-0.231,-0.5295,-0.229
-1.894,-0.5115,1.3825,1.203,-1.6385,0.4355,0.518,0.2895,-0.3275,-0.7865,-0.64,-0.6825,-0.233,-0.527,-0.232
-1.896,-0.512,1.3835,1.204,-1.6395,0.4355,0.5185,0.2895,-0.327,-0.7865,-0.638,-0.6825,-0.234,-0.5235,-0.2325
-1.902,-0.515,1.387,1.2085,-1.6445,0.436,0.52,0.2905,-0.325,-0.784,-0.6365,-0.681,-0.231,-0.521,-0.2315
-1.894,-0.5135,1.3805,1.204,-1.637,0.4335,0.52,0.289,-0.3265,-0.787,-0.636,-0.678,-0.2255,-0.5225,-0.23
-1.8945,-0.5135,1.381,1.204,-1.6375,0.434,0.5195,0.2915,-0.3245,-0.786,-0.632,-0.6745,-0.221,-0.5255,-0.2305
-1.889,-0.5115,1.377,1.2,-1.633,0.433,0.52,0.2955,-0.32,-0.781,-0.6295,-0.669,-0.2185,-0.5305,-0.231
-1.8855,-0.5125,1.373,1.199,-1.629,0.43,0.5205,0.2955,-0.3185,-0.78,-0.632,-0.666,-0.2175,-0.533,-0.2265
-1.8795,-0.509,1.3705,1.194,-1.625,0.431,0.5245,0.2995,-0.3135,-0.774,-0.625,-0.6615,-0.2175,-0.5295,-0.228
-1.88,-0.5105,1.3695,1.1955,-1.625,0.4295,0.5245,0.2995,-0.3155,-0.774,-0.623,-0.662,-0.2195,-0.529,-0.2295
-1.889,-0.52,1.3695,1.2045,-1.629,0.4245,0.519,0.2905,-0.324,-0.7805,-0.6295,-0.6675,-0.221,-0.5235,-0.231
-1.8905,-0.5215,1.369,1.206,-1.63,0.4235,0.5185,0.2865,-0.327,-0.7835,-0.6325,-0.672,-0.222,-0.5175,-0.2335
-1.896,-0.5205,1.3755,1.2085,-1.636,0.4275,0.52,0.2905,-0.3235,-0.782,-0.6315,-0.6735,-0.223,-0.525,-0.2325
-1.889,-0.515,1.3745,1.202,-1.6315,0.4295,0.525,0.2935,-0.3215,-0.7785,-0.631,-0.6715,-0.221,-0.532,-0.2315
-1.889,-0.513,1.376,1.201,-1.6325,0.431,0.522,0.2935,-0.3235,-0.7805,-0.634,-0.6745,-0.221,-0.532,-0.2295
-1.8855,-0.5165,1.3685,1.201,-1.627,0.426,0.514,0.2905,-0.324,-0.7815,-0.6355,-0.6755,-0.219,-0.535,-0.2315
-1.883,-0.5215,1.3615,1.2025,-1.622,0.42,0.514,0.287,-0.325,-0.7775,-0.633,-0.6755,-0.2185,-0.535,-0.234
-1.895,-0.5235,1.3715,1.2095,-1.633,0.424,0.5175,0.287,-0.324,-0.778,-0.6295,-0.674,-0.216,-0.5335,-0.2315
-1.8925,-0.519,1.3735,1.206,-1.633,0.427,0.521,0.2905,-0.322,-0.778,-0.629,-0.6735,-0.214,-0.535,-0.232
-1.897,-0.518,1.379,1.207,-1.638,0.4305,0.5215,0.2945,-0.318,-0.775,-0.6295,-0.6755,-0.215,-0.535,-0.231
-1.905,-0.524,1.381,1.2145,-1.643,0.4285,0.519,0.294,-0.3205,-0.778,-0.63,-0.6765,-0.213,-0.5325,-0.2265
-1.904,-0.527,1.377,1.2155,-1.6405,0.425,0.518,0.2925,-0.323,-0.7785,-0.631,-0.6775,-0.212,-0.5305,-0.227
-1.901,-0.5285,1.3725,1.2145,-1.6365,0.422,0.5155,0.292,-0.3245,-0.778,-0.6295,-0.6755,-0.21,-0.5345,-0.2285
-1.904,-0.531,1.373,1.2175,-1.6385,0.421,0.516,0.294,-0.3245,-0.778,-0.6295,-0.676,-0.214,-0.53,-0.229
-1.905,-0.5295,1.3755,1.217,-1.64,0.423,0.52,0.2935,-0.3225,-0.7785,-0.633,-0.677,-0.2175,-0.526,-0.229
-1.9015,-0.529,1.3725,1.2155,-1.637,0.422,0.5185,0.2895,-0.325,-0.783,-0.6355,-0.6795,-0.214,-0.5305,-0.229
-1.9035,-0.523,1.3805,1.213,-1.642,0.4285,0.5205,0.293,-0.3225,-0.78,-0.6295,-0.675,-0.21,-0.5335,-0.2285
-1.899,-0.5205,1.379,1.2095,-1.639,0.4295,0.523,0.294,-0.3195,-0.7755,-0.6235,-0.6675,-0.2055,-0.5365,-0.229
-1.902,-0.5295,1.3725,1.2155,-1.637,0.4215,0.5155,0.2895,-0.324,-0.781,-0.6285,-0.6715,-0.207,-0.5325,-0.2265
-1.907,-0.5325,1.3745,1.22,-1.6405,0.421,0.514,0.2875,-0.3245,-0.7845,-0.635,-0.6735,-0.2125,-0.5335,-0.228
-1.8935,-0.5235,1.37,1.2085,-1.632,0.4235,0.516,0.289,-0.3245,-0.782,-0.631,-0.67,-0.2135,-0.538,-0.2285
-1.888,-0.52,1.3675,1.204,-1.628,0.424,0.512,0.29,-0.323,-0.7815,-0.6265,-0.6695,-0.213,-0.5345,-0.2285
-1.887,-0.5105,1.3765,1.199,-1.632,0.433,0.516,0.295,-0.3165,-0.777,-0.6255,-0.6675,-0.215,-0.5315,-0.233
-1.875,-0.4995,1.3755,1.1875,-1.6255,0.438,0.518,0.294,-0.3185,-0.778,-0.6295,-0.669,-0.217,-0.5315,-0.228
-1.8735,-0.498,1.3755,1.1855,-1.6245,0.4385,0.518,0.2925,-0.319,-0.778,-0.6285,-0.669,-0.2175,-0.5305,-0.228
-1.87,-0.487,1.3835,1.1785,-1.627,0.4485,0.5225,0.2985,-0.3135,-0.771,-0.6205,-0.6615,-0.216,-0.523,-0.2315
-1.8695,-0.487,1.3825,1.1785,-1.626,0.4475,0.517,0.293,-0.3195,-0.776,-0.625,-0.6625,-0.2165,-0.519,-0.2285
-1.876,-0.493,1.383,1.1845,-1.6295,0.445,0.515,0.2925,-0.322,-0.7785,-0.6275,-0.665,-0.2165,-0.519,-0.229
-1.8835,-0.5045,1.379,1.194,-1.6315,0.4375,0.5135,0.2915,-0.3235,-0.778,-0.629,-0.6685,-0.2125,-0.521,-0.2315
-1.8905,-0.514,1.3765,1.2025,-1.6335,0.431,0.514,0.2895,-0.3255,-0.7775,-0.628,-0.67,-0.2135,-0.524,-0.2325
-1.8905,-0.5105,1.38,1.2005,-1.6355,0.4345,0.5195,0.2985,-0.318,-0.7705,-0.621,-0.663,-0.216,-0.525,-0.234
-1.884,-0.5125,1.3715,1.1985,-1.628,0.4295,0.517,0.2975,-0.318,-0.773,-0.626,-0.6645,-0.216,-0.531,-0.2325
-1.881,-0.5145,1.3665,1.198,-1.624,0.426,0.5195,0.3005,-0.317,-0.7745,-0.627,-0.6655,-0.2185,-0.534,-0.231
-1.8795,-0.512,1.3675,1.1955,-1.6235,0.4275,0.522,0.304,-0.3125,-0.77,-0.621,-0.6615,-0.216,-0.531,-0.232
-1.8775,-0.5125,1.365,1.195,-1.621,0.426,0.5225,0.3005,-0.3155,-0.7715,-0.6235,-0.6675,-0.215,-0.537,-0.23
-1.8875,-0.519,1.3685,1.203,-1.628,0.425,0.524,0.306,-0.3125,-0.7695,-0.624,-0.671,-0.215,-0.5375,-0.2335
-1.8885,-0.518,1.3705,1.2035,-1.6295,0.4265,0.526,0.309,-0.309,-0.766,-0.6235,-0.6685,-0.211,-0.5385,-0.2345
-1.8855,-0.5205,1.365,1.203,-1.625,0.4225,0.525,0.3055,-0.31,-0.766,-0.624,-0.6695,-0.208,-0.5375,-0.234
-1.891,-0.523,1.368,1.207,-1.6295,0.4225,0.519,0.301,-0.3145,-0.77,-0.627,-0.673,-0.207,-0.5245,-0.233
-1.899,-0.5205,1.3785,1.21,-1.639,0.429,0.5175,0.299,-0.3175,-0.774,-0.6335,-0.6785,-0.2095,-0.5235,-0.2295
-1.9035,-0.5215,1.382,1.2125,-1.6425,0.43,0.5185,0.299,-0.316,-0.7705,-0.629,-0.6775,-0.208,-0.5205,-0.2325
-1.893,-0.5145,1.3785,1.2035,-1.6355,0.432,0.5205,0.3015,-0.3125,-0.7665,-0.6235,-0.6725,-0.202,-0.5195,-0.2335
-1.88,-0.509,1.371,1.1945,-1.6255,0.431,0.5225,0.3045,-0.308,-0.763,-0.6195,-0.67,-0.201,-0.524,-0.232
-1.883,-0.511,1.372,1.197,-1.6275,0.4305,0.5235,0.305,-0.3075,-0.7625,-0.619,-0.6705,-0.2085,-0.5285,-0.233
-1.893,-0.5145,1.3785,1.2035,-1.6355,0.432,0.52,0.3045,-0.308,-0.763,-0.623,-0.673,-0.215,-0.5255,-0.2345
-1.887,-0.513,1.3735,1.2,-1.63,0.43,0.5195,0.3035,-0.309,-0.764,-0.621,-0.674,-0.2125,-0.5265,-0.235
-1.887,-0.513,1.3745,1.2,-1.6305,0.4305,0.5205,0.3035,-0.3085,-0.7645,-0.6205,-0.673,-0.21,-0.5295,-0.2315
-1.879,-0.5035,1.3755,1.191,-1.627,0.436,0.5235,0.307,-0.307,-0.7625,-0.6215,-0.6695,-0.211,-0.526,-0.229
-1.86,-0.4905,1.3695,1.175,-1.6145,0.4395,0.5235,0.3085,-0.3055,-0.7625,-0.623,-0.669,-0.2075,-0.5275,-0.227
-1.865,-0.4975,1.368,1.181,-1.6165,0.4355,0.5195,0.3045,-0.3085,-0.765,-0.6245,-0.6705,-0.206,-0.5245,-0.227
-1.874,-0.5005,1.3735,1.187,-1.6235,0.4365,0.5205,0.3035,-0.3115,-0.768,-0.6295,-0.6735,-0.213,-0.5235,-0.2265
-1.8745,-0.498,1.3765,1.186,-1.6255,0.439,0.516,0.302,-0.3115,-0.7685,-0.6305,-0.674,-0.214,-0.522,-0.226
-1.8685,-0.505,1.3635,1.187,-1.616,0.429,0.51,0.295,-0.3185,-0.774,-0.634,-0.677,-0.2095,-0.521,-0.227
-1.881,-0.504,1.377,1.1925,-1.629,0.4365,0.51,0.2965,-0.3175,-0.7725,-0.633,-0.6775,-0.2135,-0.5215,-0.2295
-1.8905,-0.496,1.3945,1.1935,-1.6425,0.4495,0.514,0.298,-0.3155,-0.769,-0.629,-0.676,-0.219,-0.5185,-0.2315
-1.884,-0.495,1.389,1.1895,-1.636,0.447,0.5145,0.295,-0.3215,-0.774,-0.6325,-0.6795,-0.2175,-0.515,-0.2315
-1.883,-0.486,1.3965,1.1845,-1.64,0.4555,0.5195,0.2965,-0.3195,-0.7715,-0.629,-0.675,-0.2155,-0.5115,-0.2335
-1.886,-0.484,1.402,1.185,-1.644,0.459,0.5245,0.298,-0.3155,-0.771,-0.6285,-0.6735,-0.218,-0.51,-0.2365
-1.895,-0.485,1.41,1.19,-1.6525,0.4625,0.5205,0.293,-0.3195,-0.7755,-0.6305,-0.6755,-0.221,-0.5055,-0.241
-1.901,-0.481,1.42,1.191,-1.6605,0.4695,0.5155,0.2845,-0.3285,-0.783,-0.6375,-0.6795,-0.2225,-0.4925,-0.2425
-1.9015,-0.477,1.4245,1.1895,-1.663,0.4735,0.515,0.2805,-0.3315,-0.786,-0.64,-0.678,-0.224,-0.479,-0.244
-1.8995,-0.4705,1.429,1.185,-1.6645,0.479,0.516,0.278,-0.333,-0.7865,-0.6355,-0.6715,-0.2185,-0.477,-0.2475
-1.904,-0.4715,1.4325,1.188,-1.668,0.4805,0.5155,0.2735,-0.3375,-0.7915,-0.637,-0.6715,-0.217,-0.4755,-0.2515
-1.922,-0.471,1.4505,1.1965,-1.686,0.4895,0.521,0.2715,-0.3385,-0.7915,-0.6375,-0.671,-0.223,-0.4645,-0.2535
-1.936,-0.474,1.462,1.205,-1.699,0.494,0.5255,0.2715,-0.3405,-0.794,-0.641,-0.6725,-0.2285,-0.464,-0.2535
-1.94,-0.4685,1.471,1.204,-1.7055,0.501,0.531,0.272,-0.339,-0.793,-0.6375,-0.669,-0.2325,-0.4625,-0.2575
-1.947,-0.4585,1.4885,1.203,-1.718,0.515,0.538,0.2835,-0.3295,-0.7865,-0.6335,-0.665,-0.235,-0.45,-0.264
-1.9505,-0.453,1.498,1.2015,-1.724,0.5225,0.5485,0.292,-0.3225,-0.782,-0.633,-0.666,-0.239,-0.4385,-0.2735
-1.945,-0.44,1.5045,1.1925,-1.7245,0.532,0.5575,0.294,-0.32,-0.78,-0.6295,-0.6645,-0.241,-0.431,-0.2795
-1.9525,-0.442,1.5105,1.197,-1.7315,0.5345,0.5565,0.2975,-0.319,-0.7805,-0.633,-0.667,-0.244,-0.435,-0.2805
-1.9645,-0.456,1.509,1.21,-1.7365,0.5265,0.559,0.2975,-0.317,-0.7775,-0.6325,-0.667,-0.245,-0.4395,-0.287
-1.9545,-0.445,1.5095,1.1995,-1.732,0.5325,0.5685,0.306,-0.3025,-0.7605,-0.6145,-0.658,-0.238,-0.441,-0.292
-1.942,-0.4265,1.5155,1.1845,-1.729,0.544,0.575,0.3195,-0.2875,-0.7435,-0.5975,-0.651,-0.231,-0.442,-0.298
-1.9455,-0.4285,1.517,1.187,-1.731,0.544,0.5715,0.32,-0.284,-0.734,-0.587,-0.648,-0.223,-0.436,-0.3045
-1.9405,-0.4265,1.514,1.1835,-1.727,0.543,0.583,0.339,-0.2645,-0.7185,-0.576,-0.6455,-0.2175,-0.4435,-0.3115
-1.9265,-0.4245,1.5015,1.1755,-1.714,0.5385,0.601,0.372,-0.233,-0.6935,-0.559,-0.642,-0.208,-0.4625,-0.325
-1.9085,-0.4225,1.4855,1.1655,-1.697,0.5315,0.6065,0.399,-0.1995,-0.658,-0.5315,-0.6305,-0.1905,-0.4715,-0.3345
-1.8915,-0.422,1.4695,1.1565,-1.6805,0.5235,0.6095,0.4285,-0.1615,-0.616,-0.4995,-0.6185,-0.1705,-0.4795,-0.344
-1.88,-0.43,1.4495,1.155,-1.665,0.51,0.6085,0.456,-0.1235,-0.5725,-0.462,-0.6085,-0.1455,-0.4895,-0.3575
-1.859,-0.427,1.4315,1.143,-1.6455,0.502,0.6025,0.4815,-0.086,-0.527,-0.4215,-0.594,-0.1175,-0.499,-0.3685
-1.8305,-0.4205,1.41,1.1255,-1.62,0.495,0.587,0.5015,-0.046,-0.474,-0.3745,-0.5745,-0.0825,-0.508,-0.3745
-1.81,-0.4295,1.3805,1.1195,-1.595,0.4755,0.5755,0.527,-0.0065,-0.4235,-0.3285,-0.557,-0.049,-0.519,-0.3835
-1.786,-0.429,1.357,1.1075,-1.5715,0.464,0.574,0.572,0.0475,-0.3675,-0.276,-0.5365,-0.015,-0.528,-0.4
-1.7585,-0.421,1.338,1.0895,-1.548,0.4585,0.582,0.6365,0.1175,-0.2985,-0.2175,-0.512,0.0225,-0.538,-0.414
-1.7305,-0.413,1.3175,1.072,-1.524,0.452,0.5995,0.696,0.182,-0.236,-0.165,-0.4935,0.0525,-0.554,-0.434
-1.6885,-0.405,1.2835,1.0465,-1.486,0.4395,0.609,0.7565,0.251,-0.1665,-0.1035,-0.4695,0.0925,-0.5685,-0.4535
-1.64,-0.397,1.243,1.0185,-1.4415,0.423,0.5905,0.783,0.3025,-0.0985,-0.035,-0.438,0.137,-0.5635,-0.466
-1.59,-0.3845,1.2055,0.9875,-1.398,0.4105,0.559,0.757,0.3195,-0.042,0.0325,-0.4085,0.179,-0.568,-0.47
-1.551,-0.388,1.163,0.9695,-1.357,0.3875,0.5275,0.716,0.32,0.0105,0.1015,-0.381,0.2265,-0.5935,-0.4645
-1.5055,-0.3865,1.119,0.946,-1.312,0.366,0.491,0.652,0.3025,0.06,0.1785,-0.3475,0.2755,-0.602,-0.45
-1.4455,-0.386,1.0595,0.916,-1.2525,0.337,0.442,0.563,0.2595,0.091,0.2435,-0.318,0.3195,-0.606,-0.423
-1.403,-0.3885,1.0145,0.8955,-1.2085,0.313,0.394,0.48,0.211,0.1115,0.2975,-0.2945,0.3575,-0.6145,-0.4025
-1.3475,-0.37,0.9775,0.8585,-1.1625,0.304,0.342,0.397,0.165,0.141,0.366,-0.2595,0.407,-0.614,-0.3795
-1.293,-0.355,0.938,0.824,-1.1155,0.2915,0.2915,0.3185,0.12,0.169,0.4325,-0.226,0.453,-0.6065,-0.3575
-1.2465,-0.3405,0.906,0.7935,-1.076,0.2825,0.244,0.24,0.0745,0.2025,0.508,-0.189,0.5005,-0.5945,-0.3405
-1.195,-0.3315,0.8635,0.763,-1.029,0.266,0.201,0.16,0.0255,0.233,0.58,-0.155,0.5475,-0.5955,-0.322
-1.1425,-0.329,0.8135,0.736,-0.978,0.242,0.164,0.0875,-0.018,0.2615,0.645,-0.1245,0.5885,-0.6025,-0.301
-1.0775,-0.323,0.7545,0.7005,-0.916,0.2155,0.0985,0.0005,-0.056,0.304,0.72,-0.089,0.6395,-0.6,-0.272
-1.015,-0.33,0.685,0.6725,-0.85,0.1775,0.0235,-0.084,-0.0975,0.3385,0.7865,-0.06,0.6895,-0.5995,-0.237
-0.947,-0.33,0.6165,0.6385,-0.7815,0.1435,-0.0645,-0.1845,-0.151,0.364,0.8575,-0.0235,0.744,-0.59,-0.19
-0.882,-0.325,0.557,0.6035,-0.7195,0.116,-0.1385,-0.268,-0.192,0.4,0.9285,0.007,0.793,-0.5805,-0.1535
-0.8195,-0.3315,0.488,0.5755,-0.6535,0.0785,-0.197,-0.3315,-0.2285,0.4235,0.978,0.0275,0.832,-0.5915,-0.12
-0.7685,-0.341,0.4275,0.5545,-0.598,0.0435,-0.2675,-0.4195,-0.2915,0.4105,0.9955,0.0405,0.8535,-0.6075,-0.068
-0.728,-0.3435,0.3845,0.536,-0.5565,0.0205,-0.3545,-0.5275,-0.3665,0.389,1.0005,0.049,0.8715,-0.5985,-0.0115
-0.6975,-0.348,0.3495,0.523,-0.5235,0.0005,-0.4295,-0.619,-0.4365,0.3545,0.985,0.052,0.88,-0.5845,0.04
-0.694,-0.3755,0.319,0.535,-0.5065,-0.028,-0.481,-0.682,-0.495,0.304,0.942,0.0415,0.8715,-0.588,0.083
-0.6775,-0.3875,0.29,0.5325,-0.4835,-0.0485,-0.5155,-0.7205,-0.5385,0.258,0.9005,0.037,0.8655,-0.5915,0.119
-0.6515,-0.3905,0.261,0.521,-0.456,-0.065,-0.5115,-0.7315,-0.572,0.2005,0.8385,0.0225,0.8425,-0.6125,0.1455
-0.6615,-0.4225,0.239,0.542,-0.4505,-0.092,-0.51,-0.745,-0.6085,0.135,0.7615,-0.0055,0.809,-0.6385,0.1675
-0.6805,-0.456,0.225,0.568,-0.453,-0.1155,-0.4975,-0.756,-0.652,0.058,0.679,-0.036,0.773,-0.658,0.186
-0.7045,-0.4865,0.218,0.5955,-0.461,-0.1345,-0.464,-0.758,-0.7,-0.032,0.58,-0.069,0.7315,-0.6785,0.204
-0.7505,-0.5205,0.23,0.6355,-0.4905,-0.145,-0.4245,-0.7585,-0.762,-0.1505,0.4545,-0.1175,0.6735,-0.702,0.227
-0.8015,-0.5545,0.2465,0.678,-0.524,-0.154,-0.3845,-0.7625,-0.827,-0.287,0.3085,-0.1755,0.601,-0.7215,0.2465
-0.865,-0.5965,0.269,0.7305,-0.567,-0.1635,-0.3265,-0.7505,-0.8835,-0.428,0.1505,-0.24,0.516,-0.7475,0.2535
-0.951,-0.6335,0.3175,0.792,-0.634,-0.158,-0.2485,-0.7225,-0.9265,-0.5645,-0.014,-0.309,0.418,-0.7695,0.254
-1.0275,-0.6575,0.37,0.8425,-0.6985,-0.1435,-0.194,-0.702,-0.96,-0.678,-0.148,-0.3655,0.336,-0.772,0.2555
-1.093,-0.6805,0.4125,0.8865,-0.753,-0.134,-0.132,-0.6705,-0.9855,-0.782,-0.2695,-0.4235,0.254,-0.788,0.245
-1.183,-0.7095,0.473,0.946,-0.828,-0.118,-0.0515,-0.623,-0.9915,-0.8695,-0.3865,-0.4835,0.1675,-0.8005,0.221
-1.2645,-0.7405,0.524,1.0025,-0.894,-0.1085,0.0175,-0.587,-1.0045,-0.9625,-0.497,-0.5365,0.091,-0.8155,0.2075
-1.3375,-0.7655,0.572,1.0515,-0.955,-0.097,0.0805,-0.5615,-1.0275,-1.055,-0.6095,-0.588,0.015,-0.8315,0.1975
-1.4005,-0.771,0.6295,1.086,-1.015,-0.071,0.135,-0.5385,-1.042,-1.125,-0.692,-0.622,-0.0455,-0.8275,0.184
-1.4665,-0.779,0.6875,1.1225,-1.077,-0.046,0.172,-0.524,-1.058,-1.185,-0.75,-0.6455,-0.088,-0.8165,0.1765
-1.5465,-0.782,0.7645,1.1645,-1.1555,-0.0085,0.2085,-0.5155,-1.075,-1.2385,-0.803,-0.6705,-0.1335,-0.791,0.1665
-1.605,-0.7755,0.83,1.19,-1.2175,0.027,0.236,-0.511,-1.093,-1.29,-0.8485,-0.69,-0.175,-0.7695,0.1585
-1.665,-0.778,0.8865,1.2215,-1.276,0.0545,0.258,-0.501,-1.1,-1.3245,-0.8845,-0.7065,-0.21,-0.755,0.1465
-1.7435,-0.7715,0.9725,1.2575,-1.358,0.1005,0.2855,-0.4825,-1.0885,-1.3345,-0.9065,-0.719,-0.2475,-0.7215,0.1205
-1.81,-0.758,1.0525,1.284,-1.431,0.1475,0.3035,-0.468,-1.0745,-1.337,-0.924,-0.734,-0.2775,-0.681,0.0965
-1.863,-0.7485,1.114,1.3055,-1.4885,0.183,0.315,-0.4615,-1.067,-1.342,-0.941,-0.75,-0.306,-0.6495,0.0765
-1.927,-0.743,1.184,1.335,-1.5555,0.2205,0.322,-0.4495,-1.05,-1.3395,-0.9545,-0.7655,-0.3395,-0.614,0.0485
-1.9635,-0.727,1.237,1.345,-1.6005,0.255,0.329,-0.4315,-1.0255,-1.3275,-0.959,-0.7775,-0.3665,-0.5775,0.021
-1.9695,-0.699,1.2705,1.3345,-1.62,0.2855,0.3345,-0.4155,-1.007,-1.3165,-0.959,-0.7845,-0.389,-0.557,0.002
-1.9915,-0.6785,1.313,1.335,-1.652,0.317,0.3435,-0.397,-0.985,-1.301,-0.955,-0.7865,-0.4055,-0.542,-0.0125
-2.0285,-0.6695,1.359,1.349,-1.6935,0.3445,0.348,-0.3755,-0.9565,-1.2765,-0.943,-0.788,-0.4195,-0.5145,-0.032
-2.032,-0.643,1.389,1.3375,-1.7105,0.373,0.342,-0.348,-0.919,-1.243,-0.9215,-0.7825,-0.42,-0.487,-0.0495
-2.0215,-0.611,1.41,1.316,-1.7155,0.3995,0.3425,-0.311,-0.877,-1.205,-0.898,-0.775,-0.416,-0.4695,-0.0635
-2.015,-0.586,1.429,1.3005,-1.722,0.4215,0.3435,-0.275,-0.8345,-1.1675,-0.876,-0.7705,-0.415,-0.4525,-0.085
-2.0155,-0.5595,1.456,1.2875,-1.7355,0.448,0.3405,-0.2365,-0.79,-1.129,-0.851,-0.763,-0.4135,-0.4315,-0.1075
-2.028,-0.547,1.4815,1.2875,-1.7545,0.4675,0.3365,-0.197,-0.747,-1.0925,-0.8305,-0.7595,-0.4135,-0.42,-0.1275
-2.025,-0.5275,1.497,1.2765,-1.761,0.485,0.3325,-0.1605,-0.7035,-1.0565,-0.808,-0.751,-0.3995,-0.412,-0.1435
-2.0295,-0.5175,1.512,1.2735,-1.771,0.4975,0.3335,-0.1255,-0.668,-1.0255,-0.7895,-0.7445,-0.3885,-0.3995,-0.1545
-2.018,-0.5105,1.5075,1.264,-1.763,0.4985,0.334,-0.087,-0.634,-0.999,-0.7725,-0.7365,-0.374,-0.398,-0.1625
-1.9955,-0.499,1.497,1.247,-1.7465,0.499,0.339,-0.05,-0.598,-0.968,-0.751,-0.726,-0.354,-0.4,-0.1715
-1.9815,-0.491,1.4905,1.2365,-1.736,0.4995,0.3535,-0.0155,-0.567,-0.9415,-0.7395,-0.72,-0.341,-0.403,-0.1795
-1.958,-0.474,1.484,1.216,-1.721,0.505,0.3645,0.0245,-0.535,-0.922,-0.729,-0.711,-0.3295,-0.4085,-0.1835
-1.937,-0.457,1.4795,1.197,-1.7085,0.5115,0.3765,0.0595,-0.5055,-0.898,-0.713,-0.704,-0.3145,-0.4085,-0.1875
-1.9285,-0.4575,1.471,1.193,-1.6995,0.5065,0.383,0.089,-0.478,-0.8775,-0.698,-0.699,-0.2995,-0.411,-0.1935
-1.9135,-0.458,1.4555,1.186,-1.6845,0.4985,0.3875,0.1125,-0.4575,-0.8625,-0.689,-0.693,-0.2885,-0.4155,-0.195
-1.8935,-0.454,1.4395,1.174,-1.6665,0.4925,0.3975,0.1375,-0.436,-0.845,-0.675,-0.685,-0.2735,-0.4265,-0.1935
-1.8895,-0.463,1.4265,1.176,-1.658,0.482,0.4075,0.1605,-0.417,-0.83,-0.6625,-0.6785,-0.267,-0.4395,-0.194
-1.8805,-0.454,1.4265,1.167,-1.6535,0.4865,0.412,0.1765,-0.404,-0.82,-0.6585,-0.6755,-0.2605,-0.4405,-0.1945
-1.88,-0.4525,1.4275,1.1665,-1.654,0.4875,0.417,0.194,-0.3925,-0.8145,-0.6535,-0.674,-0.251,-0.4475,-0.1945
-1.8835,-0.4625,1.421,1.173,-1.6525,0.479,0.428,0.205,-0.384,-0.81,-0.6525,-0.6745,-0.2485,-0.4575,-0.1935
-1.8825,-0.4645,1.4185,1.1735,-1.6505,0.477,0.4375,0.215,-0.3775,-0.807,-0.6495,-0.674,-0.2465,-0.4585,-0.1965
-1.8765,-0.466,1.4105,1.171,-1.6435,0.4725,0.445,0.2215,-0.374,-0.807,-0.651,-0.674,-0.243,-0.4665,-0.195
-1.8665,-0.465,1.401,1.1655,-1.634,0.468,0.45,0.2285,-0.3705,-0.8065,-0.652,-0.675,-0.2395,-0.475,-0.1975
-1.8705,-0.471,1.3995,1.171,-1.635,0.464,0.458,0.2375,-0.3665,-0.8035,-0.6495,-0.675,-0.2365,-0.476,-0.2
-1.8695,-0.4685,1.401,1.169,-1.6355,0.466,0.4645,0.242,-0.358,-0.7975,-0.645,-0.6745,-0.233,-0.4825,-0.202
-1.8705,-0.472,1.3985,1.1715,-1.6345,0.463,0.47,0.2495,-0.3485,-0.791,-0.639,-0.6725,-0.2265,-0.492,-0.2095
-1.877,-0.4815,1.3955,1.179,-1.636,0.457,0.4735,0.2555,-0.3455,-0.7905,-0.639,-0.6715,-0.2205,-0.4935,-0.2095
-1.8625,-0.474,1.3885,1.1685,-1.6255,0.4575,0.48,0.264,-0.3395,-0.7845,-0.632,-0.664,-0.2125,-0.4935,-0.2105
-1.8605,-0.4835,1.377,1.172,-1.619,0.447,0.488,0.275,-0.3305,-0.777,-0.625,-0.6595,-0.2125,-0.5035,-0.217
-1.87,-0.497,1.373,1.1835,-1.6215,0.438,0.4965,0.2835,-0.322,-0.772,-0.623,-0.6575,-0.217,-0.513,-0.226
-1.871,-0.4945,1.376,1.183,-1.6235,0.441,0.5035,0.2925,-0.313,-0.7635,-0.616,-0.654,-0.214,-0.5115,-0.2325
-1.865,-0.4905,1.3745,1.178,-1.62,0.442,0.5045,0.2985,-0.309,-0.7595,-0.6105,-0.6535,-0.211,-0.509,-0.2345
-1.8605,-0.4905,1.37,1.1755,-1.615,0.4395,0.5045,0.298,-0.3105,-0.7615,-0.613,-0.6535,-0.2095,-0.506,-0.2335
-1.8745,-0.5,1.374,1.187,-1.624,0.437,0.4935,0.295,-0.3115,-0.76,-0.612,-0.6535,-0.2085,-0.5085,-0.232
-1.8835,-0.5025,1.381,1.193,-1.6325,0.439,0.4965,0.3015,-0.305,-0.7525,-0.6065,-0.6515,-0.208,-0.513,-0.2355
-1.877,-0.498,1.379,1.1875,-1.628,0.4405,0.5015,0.3065,-0.3035,-0.7535,-0.613,-0.656,-0.209,-0.5155,-0.233
-1.873,-0.5015,1.3715,1.1875,-1.622,0.435,0.4965,0.306,-0.3035,-0.7565,-0.6175,-0.6585,-0.2065,-0.5145,-0.23
-1.8785,-0.508,1.37,1.193,-1.624,0.431,0.497,0.3065,-0.303,-0.757,-0.6175,-0.6595,-0.202,-0.5145,-0.231
-1.886,-0.5125,1.3735,1.1995,-1.63,0.4305,0.494,0.303,-0.307,-0.7615,-0.6225,-0.664,-0.2015,-0.516,-0.2265
-1.8945,-0.5175,1.377,1.206,-1.636,0.43,0.492,0.3015,-0.3075,-0.7625,-0.6255,-0.666,-0.1995,-0.5135,-0.227
-1.9025,-0.5215,1.3815,1.212,-1.642,0.43,0.494,0.303,-0.3065,-0.7615,-0.628,-0.6695,-0.199,-0.5155,-0.23
-1.9015,-0.5205,1.381,1.211,-1.641,0.4305,0.4975,0.304,-0.3035,-0.76,-0.6275,-0.6705,-0.197,-0.516,-0.2295
-1.904,-0.5215,1.3825,1.2125,-1.6435,0.4305,0.4955,0.3085,-0.3015,-0.759,-0.628,-0.671,-0.1965,-0.512,-0.2285
-1.9045,-0.52,1.385,1.212,-1.645,0.4325,0.495,0.307,-0.3005,-0.7575,-0.625,-0.6695,-0.197,-0.5105,-0.23
-1.8965,-0.5105,1.386,1.2035,-1.641,0.4375,0.497,0.308,-0.297,-0.7535,-0.62,-0.664,-0.195,-0.5005,-0.2295
-1.887,-0.5005,1.386,1.194,-1.6365,0.4425,0.4965,0.3105,-0.2935,-0.749,-0.6205,-0.662,-0.1935,-0.4965,-0.2295
-1.874,-0.486,1.388,1.18,-1.631,0.451,0.5005,0.3155,-0.2875,-0.7435,-0.6155,-0.6585,-0.1915,-0.4995,-0.2295
-1.874,-0.4815,1.393,1.1775,-1.6335,0.456,0.4965,0.3165,-0.286,-0.742,-0.613,-0.658,-0.194,-0.499,-0.2295
-1.8625,-0.4735,1.389,1.1675,-1.6255,0.458,0.497,0.3175,-0.283,-0.738,-0.6075,-0.654,-0.193,-0.5005,-0.2305
-1.845,-0.4595,1.3855,1.152,-1.615,0.463,0.502,0.3225,-0.28,-0.735,-0.603,-0.6485,-0.193,-0.5,-0.231
-1.839,-0.4485,1.39,1.144,-1.6145,0.4705,0.506,0.327,-0.2745,-0.73,-0.597,-0.644,-0.192,-0.4995,-0.2305
-1.8415,-0.4435,1.3985,1.1425,-1.62,0.4775,0.5095,0.332,-0.2695,-0.7265,-0.5915,-0.6385,-0.189,-0.5025,-0.2285
-1.845,-0.449,1.396,1.147,-1.6205,0.4735,0.5075,0.3285,-0.2735,-0.7315,-0.5985,-0.644,-0.195,-0.5025,-0.228
-1.835,-0.45,1.385,1.1425,-1.61,0.4675,0.509,0.3275,-0.2725,-0.7305,-0.5995,-0.647,-0.1965,-0.5,-0.232
-1.842,-0.4535,1.3885,1.1475,-1.615,0.4675,0.512,0.3305,-0.2725,-0.7285,-0.599,-0.646,-0.1955,-0.5035,-0.2345
-1.856,-0.458,1.398,1.157,-1.627,0.47,0.5215,0.336,-0.2685,-0.7265,-0.598,-0.6455,-0.1995,-0.5085,-0.233
-1.852,-0.455,1.397,1.1535,-1.6245,0.471,0.522,0.3375,-0.2665,-0.725,-0.597,-0.6445,-0.196,-0.506,-0.231
-1.847,-0.454,1.393,1.1505,-1.62,0.4695,0.516,0.335,-0.2715,-0.7275,-0.599,-0.6465,-0.194,-0.502,-0.228
-1.85,-0.461,1.389,1.1555,-1.6195,0.464,0.5125,0.334,-0.271,-0.7295,-0.601,-0.652,-0.1955,-0.503,-0.23
-1.8485,-0.4625,1.386,1.1555,-1.617,0.4615,0.513,0.3325,-0.2715,-0.73,-0.6,-0.6485,-0.1895,-0.503,-0.2295
-1.8505,-0.461,1.3895,1.1555,-1.62,0.4645,0.5145,0.3345,-0.2705,-0.7305,-0.6005,-0.6475,-0.1905,-0.5015,-0.2305
-1.8485,-0.455,1.3935,1.152,-1.621,0.469,0.5095,0.3355,-0.272,-0.7305,-0.6025,-0.655,-0.1945,-0.5035,-0.2335
-1.842,-0.4505,1.391,1.146,-1.6165,0.47,0.5115,0.3325,-0.2725,-0.7285,-0.602,-0.6545,-0.196,-0.5025,-0.235
-1.838,-0.45,1.388,1.144,-1.613,0.469,0.511,0.334,-0.2675,-0.7265,-0.6025,-0.654,-0.1935,-0.4955,-0.2335
-1.844,-0.455,1.3895,1.1495,-1.6165,0.467,0.5085,0.3335,-0.267,-0.7255,-0.602,-0.653,-0.188,-0.5,-0.2315
-1.848,-0.4575,1.3905,1.153,-1.6195,0.4665,0.5125,0.3365,-0.265,-0.726,-0.6035,-0.6515,-0.1855,-0.5025,-0.2305
-1.8375,-0.4495,1.388,1.1435,-1.613,0.4695,0.512,0.342,-0.259,-0.7235,-0.6005,-0.648,-0.177,-0.5,-0.2255
-1.8405,-0.4535,1.387,1.147,-1.614,0.467,0.5055,0.3365,-0.263,-0.7275,-0.6025,-0.647,-0.175,-0.505,-0.2235
-1.8495,-0.4655,1.384,1.1575,-1.6165,0.459,0.5075,0.337,-0.2645,-0.7275,-0.6025,-0.65,-0.177,-0.5085,-0.226
-1.8655,-0.4795,1.3855,1.1725,-1.6255,0.453,0.51,0.3385,-0.263,-0.7245,-0.599,-0.652,-0.178,-0.515,-0.2305
-1.8705,-0.4865,1.384,1.1785,-1.6275,0.449,0.5045,0.3315,-0.2675,-0.729,-0.6025,-0.6525,-0.179,-0.513,-0.2325
-1.8655,-0.48,1.3855,1.1725,-1.6255,0.4525,0.5075,0.3345,-0.2645,-0.724,-0.5985,-0.651,-0.179,-0.507,-0.2335
-1.863,-0.47,1.393,1.1665,-1.628,0.4615,0.5095,0.3375,-0.264,-0.722,-0.598,-0.652,-0.182,-0.5065,-0.234
-1.857,-0.469,1.388,1.1625,-1.6225,0.4595,0.5055,0.336,-0.2665,-0.726,-0.6005,-0.6525,-0.1815,-0.5085,-0.233
-1.8585,-0.4705,1.3885,1.1645,-1.6235,0.459,0.507,0.336,-0.264,-0.724,-0.599,-0.6505,-0.1855,-0.5055,-0.233
-1.863,-0.471,1.392,1.167,-1.6275,0.4605,0.505,0.334,-0.2645,-0.7225,-0.5955,-0.6505,-0.189,-0.503,-0.2355
-1.869,-0.475,1.394,1.172,-1.6315,0.4595,0.5035,0.334,-0.2645,-0.7205,-0.591,-0.6515,-0.192,-0.4985,-0.241
-1.8585,-0.467,1.3915,1.163,-1.625,0.4625,0.5045,0.335,-0.264,-0.721,-0.5975,-0.653,-0.195,-0.4985,-0.242
-1.855,-0.4655,1.389,1.1605,-1.622,0.462,0.503,0.3315,-0.2665,-0.7255,-0.6055,-0.6555,-0.194,-0.5045,-0.2405
-1.8625,-0.4685,1.394,1.1655,-1.6285,0.463,0.499,0.3315,-0.2665,-0.724,-0.5995,-0.6545,-0.1935,-0.4975,-0.243
-1.8545,-0.464,1.3905,1.159,-1.6225,0.4635,0.4975,0.333,-0.264,-0.721,-0.5935,-0.6515,-0.1905,-0.494,-0.2425
-1.8575,-0.462,1.3955,1.1595,-1.6265,0.4665,0.5,0.336,-0.261,-0.719,-0.5925,-0.6525,-0.191,-0.4955,-0.2395
-1.8685,-0.467,1.402,1.168,-1.6355,0.4675,0.501,0.337,-0.26,-0.717,-0.5925,-0.654,-0.194,-0.498,-0.241
-1.875,-0.4715,1.403,1.1735,-1.639,0.466,0.5035,0.337,-0.2595,-0.719,-0.595,-0.6535,-0.1975,-0.497,-0.2445
-1.867,-0.4735,1.3935,1.17,-1.63,0.46,0.504,0.3375,-0.26,-0.7205,-0.598,-0.654,-0.199,-0.4975,-0.247
-1.8635,-0.4765,1.387,1.17,-1.6255,0.455,0.504,0.3375,-0.2605,-0.72,-0.596,-0.6535,-0.198,-0.5,-0.246
-1.8685,-0.4795,1.3895,1.174,-1.629,0.455,0.5075,0.342,-0.255,-0.7145,-0.588,-0.6505,-0.1985,-0.502,-0.2475
-1.8625,-0.487,1.3755,1.1745,-1.619,0.4445,0.507,0.3415,-0.2555,-0.716,-0.594,-0.652,-0.202,-0.508,-0.2455
-1.8665,-0.4915,1.3755,1.179,-1.621,0.442,0.5075,0.344,-0.256,-0.7165,-0.599,-0.6525,-0.2055,-0.5125,-0.243
-1.873,-0.49,1.383,1.1815,-1.628,0.4465,0.508,0.345,-0.2535,-0.7125,-0.595,-0.6525,-0.2045,-0.5105,-0.24
-1.8695,-0.486,1.3835,1.1775,-1.6265,0.449,0.505,0.34,-0.2555,-0.7135,-0.596,-0.6545,-0.2025,-0.5075,-0.236
-1.865,-0.4825,1.383,1.174,-1.624,0.45,0.5015,0.338,-0.258,-0.7145,-0.596,-0.654,-0.2005,-0.5065,-0.233
-1.8635,-0.4795,1.384,1.171,-1.6235,0.4525,0.5025,0.337,-0.2575,-0.7125,-0.5965,-0.652,-0.199,-0.5085,-0.233
-1.864,-0.478,1.3855,1.171,-1.625,0.454,0.5055,0.3365,-0.257,-0.713,-0.5955,-0.655,-0.2005,-0.513,-0.2365
-1.8725,-0.4885,1.384,1.1805,-1.628,0.448,0.5025,0.332,-0.2615,-0.7175,-0.598,-0.657,-0.1995,-0.511,-0.234
-1.865,-0.4865,1.3785,1.1755,-1.622,0.446,0.501,0.3335,-0.2595,-0.7145,-0.5945,-0.6495,-0.1925,-0.5115,-0.2365
-1.859,-0.479,1.38,1.169,-1.6195,0.4505,0.5085,0.342,-0.253,-0.709,-0.5895,-0.649,-0.1935,-0.514,-0.241
-1.8705,-0.4835,1.3865,1.177,-1.6285,0.4515,0.5085,0.3415,-0.2535,-0.71,-0.5925,-0.651,-0.197,-0.513,-0.2395
-1.8665,-0.485,1.3815,1.1755,-1.624,0.4485,0.505,0.34,-0.2545,-0.7105,-0.592,-0.647,-0.1905,-0.513,-0.235
-1.864,-0.4855,1.3785,1.175,-1.6215,0.4465,0.508,0.343,-0.2505,-0.709,-0.5925,-0.645,-0.1855,-0.5135,-0.2355
-1.858,-0.484,1.374,1.171,-1.616,0.445,0.51,0.3445,-0.247,-0.7085,-0.592,-0.645,-0.186,-0.514,-0.241
-1.855,-0.486,1.369,1.1705,-1.612,0.4415,0.5055,0.3405,-0.251,-0.7125,-0.5955,-0.646,-0.187,-0.5075,-0.24
-1.852,-0.484,1.368,1.168,-1.61,0.442,0.508,0.342,-0.25,-0.708,-0.5955,-0.647,-0.186,-0.5045,-0.2375
-1.8615,-0.4865,1.3755,1.174,-1.6185,0.4445,0.5095,0.3485,-0.244,-0.706,-0.595,-0.6475,-0.1885,-0.5105,-0.238
-1.871,-0.4935,1.3775,1.182,-1.6245,0.442,0.504,0.3415,-0.249,-0.7125,-0.601,-0.6495,-0.19,-0.51,-0.2375
-1.8455,-0.4745,1.371,1.16,-1.6085,0.4485,0.509,0.342,-0.25,-0.709,-0.6,-0.6475,-0.1875,-0.509,-0.237
-1.84,-0.466,1.374,1.153,-1.607,0.454,0.5075,0.345,-0.2485,-0.7105,-0.6,-0.645,-0.185,-0.5085,-0.2345
-1.85,-0.4675,1.3825,1.1585,-1.616,0.4575,0.501,0.3435,-0.2495,-0.7105,-0.602,-0.6455,-0.18,-0.505,-0.232
-1.8625,-0.47,1.3925,1.166,-1.6275,0.4615,0.5045,0.344,-0.251,-0.7105,-0.6025,-0.646,-0.182,-0.5105,-0.2295
-1.8725,-0.479,1.3935,1.1755,-1.633,0.4575,0.5015,0.3425,-0.2545,-0.7135,-0.6055,-0.65,-0.1805,-0.514,-0.231
-1.8685,-0.4795,1.389,1.174,-1.6285,0.4545,0.4975,0.3415,-0.2535,-0.7125,-0.6035,-0.65,-0.1715,-0.5075,-0.2315
-1.8705,-0.488,1.3825,1.179,-1.6265,0.447,0.499,0.339,-0.255,-0.7145,-0.6015,-0.648,-0.167,-0.5125,-0.227
-1.8735,-0.5015,1.372,1.1875,-1.6225,0.435,0.495,0.3375,-0.257,-0.7165,-0.603,-0.6485,-0.1625,-0.5155,-0.2245
-1.871,-0.4985,1.373,1.185,-1.622,0.4375,0.493,0.338,-0.2555,-0.7155,-0.5995,-0.649,-0.157,-0.51,-0.221
-1.8705,-0.4885,1.3825,1.1795,-1.6265,0.447,0.496,0.341,-0.2545,-0.7115,-0.596,-0.6475,-0.153,-0.508,-0.22
-1.8695,-0.488,1.3815,1.1785,-1.6255,0.4465,0.4965,0.342,-0.2535,-0.7115,-0.5975,-0.648,-0.153,-0.499,-0.2225
-1.859,-0.4835,1.3755,1.171,-1.617,0.446,0.494,0.3405,-0.2525,-0.7105,-0.594,-0.647,-0.1525,-0.4905,-0.226
-1.856,-0.479,1.377,1.1675,-1.6165,0.449,0.4905,0.3395,-0.2505,-0.7075,-0.5915,-0.6455,-0.157,-0.49,-0.227
-1.8495,-0.4695,1.38,1.1595,-1.6145,0.455,0.4905,0.3415,-0.2465,-0.703,-0.5865,-0.6435,-0.1615,-0.49,-0.226
-1.843,-0.4635,1.3795,1.1535,-1.611,0.458,0.491,0.345,-0.243,-0.6985,-0.581,-0.642,-0.159,-0.4995,-0.2305
-1.8485,-0.466,1.3825,1.157,-1.6155,0.4585,0.4945,0.347,-0.2405,-0.6955,-0.5785,-0.641,-0.161,-0.512,-0.234
-1.8505,-0.4605,1.3895,1.1555,-1.62,0.4645,0.501,0.352,-0.237,-0.692,-0.5745,-0.6395,-0.167,-0.508,-0.235
-1.8505,-0.4665,1.384,1.1585,-1.617,0.4585,0.4965,0.3525,-0.2375,-0.692,-0.5765,-0.642,-0.172,-0.507,-0.2375
-1.842,-0.4595,1.3825,1.151,-1.612,0.4615,0.4965,0.3515,-0.235,-0.6905,-0.5735,-0.6375,-0.1715,-0.5075,-0.2375
-1.8435,-0.456,1.3875,1.1495,-1.615,0.4655,0.5005,0.3505,-0.234,-0.6885,-0.572,-0.6345,-0.171,-0.505,-0.238
-1.847,-0.463,1.3845,1.155,-1.6155,0.4605,0.5,0.349,-0.237,-0.6905,-0.577,-0.6405,-0.1775,-0.5085,-0.2395
-1.8375,-0.4565,1.381,1.147,-1.6095,0.4625,0.503,0.3515,-0.2355,-0.6915,-0.576,-0.641,-0.183,-0.5055,-0.241
-1.8335,-0.4545,1.379,1.144,-1.6065,0.462,0.5065,0.3535,-0.233,-0.691,-0.5725,-0.6395,-0.1855,-0.503,-0.2445
-1.836,-0.454,1.382,1.145,-1.609,0.464,0.5085,0.355,-0.2305,-0.6875,-0.567,-0.637,-0.1885,-0.5025,-0.244
-1.839,-0.454,1.3855,1.1465,-1.6125,0.466,0.512,0.3605,-0.227,-0.6855,-0.566,-0.637,-0.19,-0.507,-0.2455
-1.829,-0.45,1.379,1.1395,-1.604,0.4645,0.5095,0.362,-0.225,-0.684,-0.569,-0.638,-0.188,-0.514,-0.2495
-1.8225,-0.4485,1.3735,1.1355,-1.598,0.4625,0.5055,0.3545,-0.229,-0.684,-0.571,-0.6385,-0.185,-0.5105,-0.2435
-1.8295,-0.4535,1.3765,1.1415,-1.603,0.4615,0.5075,0.353,-0.23,-0.687,-0.573,-0.6405,-0.184,-0.5085,-0.242
-1.8345,-0.456,1.3785,1.1455,-1.6065,0.461,0.503,0.3545,-0.229,-0.6865,-0.574,-0.6405,-0.185,-0.5005,-0.245
-1.837,-0.4595,1.378,1.148,-1.6075,0.459,0.5005,0.3545,-0.2315,-0.6875,-0.577,-0.644,-0.185,-0.5015,-0.238
-1.832,-0.455,1.377,1.1435,-1.6045,0.461,0.501,0.3575,-0.2255,-0.682,-0.573,-0.642,-0.1775,-0.5065,-0.237
-1.832,-0.454,1.3785,1.143,-1.6055,0.4625,0.5025,0.3605,-0.223,-0.68,-0.5705,-0.638,-0.171,-0.5065,-0.238
-1.841,-0.4615,1.3795,1.151,-1.61,0.459,0.5085,0.3595,-0.228,-0.688,-0.5785,-0.6415,-0.173,-0.509,-0.2375
-1.8455,-0.4695,1.376,1.1575,-1.6105,0.4535,0.5065,0.3545,-0.2305,-0.6915,-0.5815,-0.6435,-0.1685,-0.5065,-0.237
-1.856,-0.4795,1.3765,1.1675,-1.6165,0.4485,0.4945,0.3485,-0.235,-0.6975,-0.5855,-0.65,-0.1665,-0.509,-0.234
-1.8675,-0.4885,1.379,1.178,-1.623,0.445,0.4925,0.347,-0.2375,-0.7,-0.5895,-0.655,-0.1655,-0.506,-0.233
-1.8795,-0.501,1.3785,1.19,-1.629,0.439,0.4925,0.3435,-0.242,-0.701,-0.5915,-0.6565,-0.164,-0.504,-0.2315
-1.8795,-0.5015,1.378,1.1905,-1.6285,0.438,0.4855,0.34,-0.245,-0.702,-0.593,-0.657,-0.1645,-0.5005,-0.2295
-1.872,-0.4935,1.3785,1.1825,-1.625,0.4425,0.487,0.3385,-0.2455,-0.7,-0.587,-0.652,-0.1585,-0.4985,-0.227
-1.8735,-0.4895,1.3835,1.1815,-1.6285,0.447,0.492,0.342,-0.24,-0.699,-0.5825,-0.6485,-0.165,-0.5025,-0.231
-1.863,-0.4835,1.3795,1.173,-1.6215,0.448,0.4915,0.354,-0.2285,-0.6895,-0.5795,-0.6435,-0.1715,-0.5045,-0.2355
-1.8545,-0.4845,1.37,1.1695,-1.612,0.4425,0.4945,0.356,-0.226,-0.686,-0.5765,-0.64,-0.1725,-0.51,-0.2375
-1.845,-0.4725,1.3725,1.1585,-1.609,0.45,0.4995,0.36,-0.22,-0.6805,-0.569,-0.6315,-0.1725,-0.5035,-0.236
-1.823,-0.447,1.376,1.135,-1.5995,0.4645,0.5045,0.3665,-0.213,-0.6725,-0.563,-0.6265,-0.174,-0.5025,-0.2345
-1.7975,-0.4295,1.368,1.1135,-1.5825,0.469,0.509,0.3685,-0.2115,-0.6715,-0.56,-0.624,-0.1735,-0.503,-0.2345
-1.7895,-0.4265,1.363,1.108,-1.5765,0.4685,0.509,0.3725,-0.209,-0.668,-0.5555,-0.619,-0.1685,-0.501,-0.2365
-1.806,-0.439,1.3675,1.1225,-1.587,0.4645,0.51,0.37,-0.213,-0.671,-0.5615,-0.627,-0.1715,-0.511,-0.2405
-1.8145,-0.448,1.366,1.1315,-1.5905,0.459,0.51,0.3695,-0.214,-0.675,-0.5625,-0.6275,-0.1685,-0.507,-0.241
-1.817,-0.4565,1.3605,1.1365,-1.5885,0.452,0.506,0.368,-0.213,-0.675,-0.5625,-0.626,-0.1645,-0.5065,-0.2425
-1.816,-0.4545,1.361,1.135,-1.5885,0.453,0.5085,0.3665,-0.2135,-0.675,-0.5655,-0.629,-0.1655,-0.519,-0.2445
-1.8145,-0.4535,1.3605,1.134,-1.5875,0.4535,0.5065,0.3655,-0.2135,-0.6755,-0.5685,-0.631,-0.166,-0.516,-0.2445
-1.8325,-0.4655,1.367,1.149,-1.6,0.451,0.4995,0.3605,-0.217,-0.6795,-0.5725,-0.633,-0.1685,-0.504,-0.2455
-1.8295,-0.4655,1.364,1.1475,-1.5965,0.449,0.5,0.3625,-0.2155,-0.679,-0.5735,-0.63,-0.168,-0.501,-0.2455
-1.822,-0.4605,1.361,1.141,-1.5915,0.45,0.5035,0.368,-0.211,-0.675,-0.5705,-0.629,-0.167,-0.5055,-0.2445
-1.825,-0.4615,1.3635,1.1435,-1.594,0.4505,0.502,0.3705,-0.209,-0.6735,-0.567,-0.626,-0.1645,-0.509,-0.2445
-1.835,-0.4725,1.3625,1.1535,-1.5985,0.445,0.498,0.3665,-0.2105,-0.677,-0.5745,-0.6325,-0.167,-0.5035,-0.2415
-1.842,-0.4745,1.3675,1.1585,-1.6045,0.446,0.5005,0.3675,-0.2085,-0.6755,-0.577,-0.635,-0.1675,-0.506,-0.238
-1.819,-0.4645,1.3545,1.142,-1.5865,0.445,0.4985,0.368,-0.2085,-0.674,-0.575,-0.6325,-0.164,-0.5125,-0.2325
-1.82,-0.4655,1.355,1.1425,-1.5875,0.445,0.4935,0.3625,-0.2115,-0.6765,-0.5755,-0.6375,-0.169,-0.5095,-0.234
-1.8215,-0.4605,1.361,1.1405,-1.591,0.45,0.4955,0.3675,-0.2065,-0.668,-0.5645,-0.633,-0.164,-0.511,-0.2355
-1.8245,-0.459,1.3655,1.1415,-1.595,0.4535,0.493,0.3705,-0.205,-0.6675,-0.562,-0.6365,-0.1635,-0.506,-0.231
-1.834,-0.4605,1.3735,1.147,-1.6035,0.4565,0.496,0.371,-0.2045,-0.6685,-0.566,-0.639,-0.1685,-0.502,-0.233
-1.8235,-0.4575,1.366,1.1405,-1.595,0.454,0.5005,0.3765,-0.1975,-0.662,-0.5635,-0.6365,-0.164,-0.5085,-0.235
-1.8355,-0.469,1.366,1.1525,-1.6005,0.4485,0.497,0.375,-0.198,-0.663,-0.565,-0.641,-0.1665,-0.513,-0.2355
-1.8315,-0.4715,1.3605,1.1515,-1.596,0.4445,0.4975,0.372,-0.2005,-0.664,-0.566,-0.64,-0.166,-0.506,-0.2365
-1.815,-0.465,1.35,1.14,-1.5825,0.4425,0.4975,0.371,-0.2005,-0.666,-0.567,-0.6425,-0.1645,-0.5005,-0.2385
-1.828,-0.4695,1.3585,1.1485,-1.593,0.4445,0.497,0.374,-0.1985,-0.664,-0.564,-0.6395,-0.163,-0.51,-0.2395
-1.838,-0.471,1.367,1.1545,-1.6025,0.448,0.5,0.3775,-0.1935,-0.659,-0.5585,-0.6355,-0.163,-0.5125,-0.241
-1.831,-0.4665,1.3645,1.1485,-1.5975,0.449,0.501,0.381,-0.1905,-0.6565,-0.5545,-0.6305,-0.1615,-0.511,-0.2425
-1.8355,-0.471,1.3645,1.153,-1.6,0.447,0.498,0.3805,-0.19,-0.6535,-0.5495,-0.628,-0.1585,-0.513,-0.2425
-1.8365,-0.479,1.3575,1.1575,-1.597,0.4395,0.49,0.3765,-0.193,-0.656,-0.55,-0.6305,-0.157,-0.5165,-0.243
-1.8395,-0.4855,1.354,1.1625,-1.5965,0.434,0.4895,0.378,-0.1895,-0.655,-0.5455,-0.6245,-0.1525,-0.518,-0.2425
-1.8505,-0.493,1.358,1.1715,-1.6045,0.4325,0.4915,0.376,-0.188,-0.6535,-0.5435,-0.626,-0.151,-0.5145,-0.2415
-1.8495,-0.493,1.357,1.171,-1.6035,0.432,0.487,0.3775,-0.19,-0.6555,-0.549,-0.629,-0.1485,-0.5125,-0.24
-1.8515,-0.4965,1.355,1.174,-1.6035,0.4295,0.485,0.374,-0.192,-0.659,-0.551,-0.6305,-0.1465,-0.513,-0.2405
-1.8545,-0.5,1.3545,1.1775,-1.6045,0.4275,0.4865,0.3715,-0.1925,-0.6585,-0.5495,-0.6275,-0.145,-0.5075,-0.24
-1.854,-0.4945,1.36,1.1745,-1.607,0.4325,0.4875,0.375,-0.1895,-0.6555,-0.549,-0.6245,-0.148,-0.5055,-0.2415
-1.8455,-0.4905,1.355,1.168,-1.6,0.432,0.487,0.3745,-0.1895,-0.6575,-0.55,-0.6285,-0.15,-0.5105,-0.243
-1.8395,-0.485,1.354,1.162,-1.5965,0.4345,0.491,0.3765,-0.187,-0.6565,-0.5495,-0.6265,-0.152,-0.5105,-0.246
-1.8405,-0.4835,1.357,1.1615,-1.5985,0.437,0.492,0.379,-0.183,-0.6525,-0.5465,-0.6255,-0.156,-0.515,-0.2495
-1.832,-0.4785,1.3535,1.1555,-1.5925,0.4375,0.497,0.386,-0.1775,-0.647,-0.5435,-0.622,-0.1545,-0.519,-0.249
-1.8155,-0.464,1.3515,1.1395,-1.5835,0.444,0.5,0.3935,-0.1705,-0.641,-0.543,-0.6185,-0.1545,-0.5185,-0.25
-1.8175,-0.464,1.3535,1.141,-1.5855,0.445,0.499,0.397,-0.168,-0.6395,-0.5415,-0.62,-0.157,-0.515,-0.2525
-1.8105,-0.46,1.3505,1.1355,-1.5805,0.445,0.5,0.3965,-0.169,-0.6405,-0.54,-0.6185,-0.1585,-0.5125,-0.2525
-1.8055,-0.4555,1.35,1.1305,-1.578,0.4475,0.499,0.3945,-0.17,-0.6425,-0.544,-0.6215,-0.1625,-0.518,-0.2505
-1.8125,-0.4575,1.355,1.135,-1.584,0.449,0.5,0.397,-0.169,-0.6425,-0.5435,-0.625,-0.164,-0.5205,-0.25
-1.8115,-0.4575,1.354,1.1345,-1.583,0.4485,0.4985,0.399,-0.167,-0.6395,-0.543,-0.626,-0.1645,-0.5165,-0.2525
-1.811,-0.4565,1.354,1.134,-1.5825,0.4485,0.4995,0.4005,-0.1635,-0.6365,-0.5415,-0.626,-0.162,-0.5175,-0.254
-1.8035,-0.4605,1.3425,1.132,-1.573,0.441,0.496,0.3985,-0.166,-0.64,-0.5455,-0.628,-0.1565,-0.518,-0.253
