i,ii,iii,avr,avl,avf,v1,v2,v3,v4,v5,v6,vx,vy,vz
0.529,-0.0775,-0.6075,-0.225,0.5685,-0.343,1.5635,0.6245,0.38,1.463,0.6185,0.442,0.3925,0.1175,-0.0205
0.5315,-0.075,-0.607,-0.228,0.5695,-0.3415,1.5605,0.6255,0.3805,1.466,0.622,0.446,0.399,0.118,-0.017
0.533,-0.075,-0.608,-0.229,0.5705,-0.3415,1.5595,0.626,0.38,1.466,0.623,0.447,0.398,0.1105,-0.019
0.539,-0.072,-0.611,-0.2335,0.575,-0.3415,1.561,0.6295,0.381,1.4685,0.6265,0.451,0.4,0.11,-0.0185
0.537,-0.0695,-0.6065,-0.2335,0.5715,-0.338,1.5585,0.6295,0.386,1.472,0.6285,0.4545,0.401,0.1175,-0.0215
0.5355,-0.0725,-0.608,-0.231,0.5715,-0.3405,1.5595,0.625,0.382,1.469,0.625,0.452,0.4,0.1215,-0.0175
0.5405,-0.071,-0.6115,-0.2345,0.576,-0.3415,1.56,0.628,0.383,1.471,0.625,0.453,0.405,0.119,-0.0155
0.5345,-0.076,-0.6105,-0.229,0.5725,-0.3435,1.563,0.627,0.382,1.4705,0.625,0.452,0.403,0.115,-0.015
0.532,-0.079,-0.6115,-0.226,0.572,-0.3455,1.5625,0.6265,0.3795,1.47,0.6225,0.447,0.399,0.1155,-0.0095
0.535,-0.0755,-0.6105,-0.2295,0.5725,-0.343,1.5635,0.6255,0.378,1.469,0.6245,0.448,0.3995,0.1155,-0.0105
0.5355,-0.0725,-0.608,-0.231,0.572,-0.3405,1.563,0.6215,0.378,1.4685,0.625,0.448,0.3985,0.117,-0.013
0.537,-0.073,-0.61,-0.2315,0.5735,-0.342,1.564,0.6225,0.376,1.468,0.6245,0.448,0.3975,0.1165,-0.0165
0.539,-0.0735,-0.612,-0.2325,0.5755,-0.343,1.5645,0.625,0.3815,1.4745,0.631,0.4525,0.402,0.1155,-0.018
0.538,-0.0725,-0.611,-0.2325,0.5745,-0.342,1.5665,0.633,0.389,1.481,0.635,0.454,0.4045,0.1185,-0.0205
0.535,-0.0735,-0.608,-0.2305,0.5715,-0.341,1.5695,0.6315,0.383,1.474,0.632,0.452,0.404,0.118,-0.02
0.535,-0.074,-0.6085,-0.23,0.5715,-0.3415,1.5665,0.628,0.381,1.4705,0.6295,0.449,0.4035,0.115,-0.018
0.537,-0.0735,-0.6105,-0.2315,0.5735,-0.3425,1.5695,0.6315,0.3825,1.47,0.627,0.4475,0.4,0.1145,-0.0175
0.538,-0.071,-0.6095,-0.233,0.574,-0.3405,1.5715,0.6275,0.3825,1.471,0.6265,0.4475,0.3995,0.117,-0.0175
0.535,-0.076,-0.611,-0.229,0.573,-0.344,1.5695,0.625,0.3825,1.4705,0.626,0.4465,0.3975,0.118,-0.015
0.5355,-0.079,-0.615,-0.228,0.575,-0.3475,1.57,0.624,0.381,1.4705,0.627,0.448,0.3995,0.1175,-0.0015
0.532,-0.079,-0.6115,-0.226,0.572,-0.346,1.5685,0.6255,0.382,1.4735,0.628,0.449,0.4035,0.116,-0.0135
0.5345,-0.0775,-0.613,-0.228,0.5735,-0.346,1.571,0.6285,0.3855,1.4735,0.6295,0.451,0.4025,0.118,-0.0245
0.546,-0.073,-0.6185,-0.2365,0.582,-0.346,1.5775,0.6265,0.3885,1.4765,0.6335,0.4555,0.4075,0.114,-0.0155
0.541,-0.076,-0.617,-0.232,0.579,-0.347,1.575,0.6325,0.393,1.4815,0.635,0.458,0.4105,0.114,-0.016
0.541,-0.078,-0.6195,-0.231,0.5805,-0.3495,1.5705,0.6315,0.391,1.48,0.632,0.456,0.411,0.112,-0.016
0.5485,-0.0715,-0.6195,-0.238,0.584,-0.346,1.5755,0.6365,0.389,1.4765,0.628,0.454,0.408,0.1055,-0.019
0.55,-0.067,-0.617,-0.241,0.5835,-0.342,1.578,0.6395,0.3875,1.4735,0.624,0.453,0.406,0.1135,-0.0185
0.5395,-0.0755,-0.615,-0.2315,0.577,-0.3455,1.5735,0.627,0.3805,1.469,0.6205,0.4485,0.4055,0.112,-0.0135
0.5315,-0.084,-0.616,-0.2235,0.574,-0.3505,1.5695,0.623,0.378,1.4665,0.618,0.447,0.409,0.113,-0.0065
0.5315,-0.085,-0.6175,-0.223,0.5745,-0.3515,1.5695,0.6215,0.3775,1.467,0.6175,0.447,0.412,0.117,-0.0055
0.5315,-0.0855,-0.6175,-0.2225,0.5745,-0.352,1.573,0.63,0.3815,1.4685,0.6205,0.4485,0.415,0.112,-0.007
0.537,-0.085,-0.622,-0.2255,0.5795,-0.354,1.5745,0.6305,0.3795,1.465,0.6215,0.4505,0.4205,0.1115,-0.0055
0.531,-0.089,-0.6205,-0.221,0.576,-0.355,1.572,0.621,0.3725,1.4585,0.617,0.445,0.414,0.103,-0.0065
0.5295,-0.0895,-0.6195,-0.2195,0.5745,-0.3555,1.5685,0.6205,0.3715,1.457,0.614,0.4415,0.4085,0.1005,-0.007
0.5315,-0.0905,-0.6225,-0.22,0.5765,-0.357,1.5675,0.6195,0.372,1.457,0.6135,0.4415,0.409,0.101,-0.0015
0.5325,-0.088,-0.621,-0.2215,0.577,-0.355,1.5705,0.62,0.372,1.459,0.617,0.443,0.406,0.1015,-0.003
0.541,-0.08,-0.6215,-0.23,0.581,-0.351,1.5715,0.6225,0.3725,1.463,0.6225,0.448,0.406,0.105,-0.0125
0.546,-0.076,-0.6225,-0.2345,0.5845,-0.3495,1.5755,0.6315,0.38,1.464,0.6255,0.4495,0.407,0.1045,-0.0105
0.549,-0.0705,-0.619,-0.239,0.5835,-0.345,1.5855,0.6335,0.3845,1.4675,0.626,0.449,0.4055,0.116,-0.0075
0.551,-0.066,-0.6175,-0.2425,0.584,-0.342,1.5855,0.63,0.387,1.4725,0.6285,0.451,0.403,0.12,-0.007
0.553,-0.068,-0.621,-0.242,0.587,-0.345,1.5825,0.628,0.387,1.473,0.6295,0.453,0.401,0.1155,-0.0075
0.548,-0.074,-0.622,-0.2365,0.585,-0.348,1.5845,0.629,0.3765,1.4655,0.624,0.4495,0.4015,0.1115,-0.008
0.546,-0.076,-0.6225,-0.235,0.5845,-0.3495,1.577,0.6265,0.3755,1.464,0.6225,0.449,0.405,0.1135,-0.0045
0.5475,-0.074,-0.621,-0.2365,0.584,-0.3475,1.574,0.62,0.3775,1.4665,0.6225,0.448,0.404,0.113,-0.006
0.544,-0.0705,-0.6145,-0.2365,0.5795,-0.343,1.5775,0.625,0.3785,1.4675,0.6225,0.4465,0.4015,0.1115,-0.0125
0.543,-0.0685,-0.6115,-0.237,0.5775,-0.3405,1.575,0.624,0.3815,1.47,0.6245,0.448,0.404,0.1165,-0.013
0.542,-0.0755,-0.6175,-0.233,0.58,-0.347,1.5725,0.624,0.3785,1.4665,0.623,0.448,0.4085,0.1085,-0.006
0.541,-0.0865,-0.628,-0.2265,0.5845,-0.358,1.573,0.6225,0.3745,1.462,0.621,0.448,0.4105,0.101,0.0065
0.5455,-0.0795,-0.625,-0.2325,0.5855,-0.3525,1.5795,0.623,0.375,1.462,0.6235,0.449,0.4095,0.104,0.0
0.55,-0.069,-0.6185,-0.24,0.584,-0.344,1.5835,0.6265,0.3795,1.4665,0.629,0.454,0.4115,0.1115,-0.0115
0.5505,-0.074,-0.625,-0.238,0.5875,-0.35,1.5815,0.6255,0.3785,1.4645,0.626,0.453,0.4105,0.112,-0.008
0.5485,-0.0815,-0.6305,-0.233,0.5895,-0.3565,1.579,0.6215,0.3745,1.461,0.6235,0.4515,0.41,0.1015,-0.0035
0.539,-0.089,-0.628,-0.2245,0.5835,-0.359,1.5795,0.6155,0.3715,1.4595,0.621,0.4505,0.4075,0.0945,-0.003
0.5345,-0.0915,-0.6265,-0.221,0.5805,-0.3595,1.5815,0.62,0.371,1.4575,0.6195,0.4485,0.404,0.1005,-0.0055
0.5365,-0.09,-0.627,-0.2225,0.582,-0.359,1.58,0.6205,0.375,1.46,0.622,0.452,0.4065,0.1045,-0.004
0.536,-0.0885,-0.6255,-0.2235,0.5805,-0.3575,1.5805,0.615,0.3725,1.461,0.622,0.453,0.406,0.1045,-0.0025
0.537,-0.088,-0.6255,-0.224,0.5815,-0.357,1.5755,0.6135,0.366,1.4565,0.619,0.4495,0.4035,0.1025,-0.0015
0.5395,-0.0845,-0.6245,-0.227,0.582,-0.355,1.5745,0.6115,0.3665,1.455,0.6145,0.446,0.4015,0.1035,-0.0005
0.539,-0.084,-0.6235,-0.2275,0.581,-0.354,1.579,0.6105,0.365,1.456,0.613,0.4455,0.401,0.1055,-0.0035
0.5375,-0.0855,-0.6235,-0.2255,0.5805,-0.355,1.58,0.6095,0.364,1.457,0.615,0.446,0.401,0.1075,-0.0045
0.54,-0.083,-0.6235,-0.228,0.582,-0.3535,1.581,0.6125,0.3645,1.457,0.6155,0.446,0.4025,0.1085,-0.0015
0.544,-0.0835,-0.6275,-0.2295,0.5855,-0.356,1.58,0.617,0.3635,1.457,0.6165,0.446,0.4025,0.1025,0.002
0.5375,-0.085,-0.623,-0.2255,0.5805,-0.3545,1.5805,0.6205,0.368,1.46,0.619,0.446,0.401,0.106,-0.002
0.5305,-0.0895,-0.62,-0.22,0.575,-0.355,1.578,0.6165,0.366,1.4555,0.617,0.4425,0.402,0.108,-0.003
0.5275,-0.095,-0.623,-0.216,0.5755,-0.3595,1.574,0.6095,0.3615,1.451,0.6125,0.436,0.397,0.105,0.0035
0.524,-0.095,-0.6195,-0.2145,0.572,-0.3575,1.5755,0.6145,0.3595,1.452,0.612,0.435,0.393,0.108,-0.0025
0.523,-0.095,-0.6185,-0.2135,0.571,-0.357,1.572,0.607,0.3575,1.4495,0.6105,0.4345,0.391,0.1055,-0.009
0.5255,-0.093,-0.619,-0.216,0.5725,-0.3565,1.5705,0.6085,0.365,1.452,0.6115,0.435,0.391,0.1055,-0.01
0.5265,-0.0895,-0.617,-0.218,0.572,-0.3535,1.579,0.615,0.363,1.452,0.6115,0.4355,0.388,0.1065,-0.01
0.5235,-0.092,-0.616,-0.2155,0.57,-0.3545,1.581,0.6125,0.3615,1.4515,0.6125,0.4375,0.3855,0.107,-0.0075
0.521,-0.0965,-0.618,-0.212,0.5695,-0.3575,1.5775,0.6135,0.364,1.454,0.613,0.442,0.391,0.106,-0.002
0.521,-0.1005,-0.6215,-0.21,0.5715,-0.3615,1.5785,0.6105,0.3655,1.4525,0.61,0.441,0.388,0.102,0.0005
0.524,-0.098,-0.623,-0.2125,0.5735,-0.361,1.5785,0.6165,0.366,1.4505,0.609,0.44,0.3845,0.097,-0.005
0.529,-0.095,-0.625,-0.217,0.577,-0.3605,1.5715,0.605,0.3585,1.4465,0.6055,0.439,0.389,0.0915,0.0025
0.528,-0.097,-0.6255,-0.215,0.5765,-0.362,1.5655,0.598,0.357,1.444,0.6045,0.437,0.3915,0.0995,0.0075
0.52,-0.101,-0.6215,-0.209,0.5705,-0.3615,1.565,0.6015,0.3555,1.44,0.6005,0.4315,0.3825,0.104,0.0
0.519,-0.105,-0.6245,-0.2065,0.5715,-0.365,1.564,0.5925,0.3455,1.4355,0.597,0.428,0.379,0.101,0.0015
0.522,-0.1075,-0.6295,-0.2065,0.5755,-0.369,1.563,0.598,0.3395,1.4335,0.5975,0.4295,0.3815,0.0965,0.004
0.5175,-0.109,-0.627,-0.2035,0.5725,-0.3685,1.5575,0.6,0.344,1.4335,0.5975,0.4285,0.3795,0.093,0.0035
0.515,-0.108,-0.623,-0.203,0.569,-0.366,1.5535,0.59,0.341,1.4325,0.5955,0.426,0.3785,0.094,0.0085
0.514,-0.108,-0.6225,-0.2025,0.5685,-0.366,1.5495,0.583,0.338,1.4315,0.595,0.4255,0.3775,0.0895,0.01
0.5205,-0.1065,-0.627,-0.2065,0.5735,-0.3675,1.543,0.583,0.3375,1.432,0.597,0.4285,0.382,0.0915,0.0105
0.53,-0.101,-0.6315,-0.214,0.5805,-0.367,1.5395,0.582,0.3365,1.4325,0.598,0.432,0.3855,0.0955,0.0125
0.5275,-0.0995,-0.6275,-0.2135,0.5775,-0.364,1.537,0.5815,0.3365,1.4335,0.599,0.433,0.383,0.1,0.013
0.522,-0.1025,-0.6245,-0.2095,0.5735,-0.364,1.534,0.58,0.334,1.4315,0.595,0.4275,0.38,0.0985,0.0135
0.523,-0.102,-0.6255,-0.21,0.574,-0.3645,1.5295,0.575,0.331,1.4305,0.5935,0.4255,0.379,0.0935,0.017
0.5255,-0.1015,-0.6275,-0.2115,0.5765,-0.365,1.529,0.576,0.3315,1.434,0.5975,0.43,0.3835,0.0945,0.021
0.53,-0.1025,-0.633,-0.213,0.5815,-0.3685,1.527,0.578,0.3365,1.4375,0.601,0.433,0.388,0.088,0.021
0.53,-0.1,-0.6305,-0.2145,0.5805,-0.3655,1.5265,0.586,0.339,1.443,0.604,0.4345,0.3895,0.0905,0.023
0.526,-0.0995,-0.626,-0.213,0.576,-0.363,1.5235,0.5765,0.342,1.4465,0.6055,0.435,0.387,0.094,0.0245
0.526,-0.101,-0.628,-0.212,0.577,-0.365,1.52,0.572,0.3335,1.439,0.6005,0.4325,0.382,0.093,0.0225
0.5245,-0.1075,-0.6325,-0.208,0.5785,-0.3705,1.5175,0.5795,0.3275,1.4325,0.596,0.4315,0.382,0.09,0.0235
0.522,-0.11,-0.633,-0.2055,0.5775,-0.372,1.5125,0.568,0.3365,1.435,0.598,0.4315,0.386,0.0865,0.027
0.5185,-0.111,-0.63,-0.203,0.5745,-0.3715,1.5085,0.568,0.337,1.4365,0.5965,0.4285,0.383,0.0875,0.0265
0.519,-0.112,-0.6315,-0.203,0.575,-0.3725,1.508,0.574,0.3315,1.434,0.594,0.4265,0.38,0.084,0.0275
0.5215,-0.1105,-0.6325,-0.205,0.577,-0.372,1.5115,0.57,0.323,1.43,0.591,0.4245,0.3785,0.083,0.031
0.5195,-0.1085,-0.6285,-0.205,0.574,-0.369,1.5085,0.5715,0.3255,1.428,0.5885,0.423,0.376,0.0855,0.0295
0.5245,-0.1005,-0.6255,-0.2115,0.575,-0.3635,1.507,0.5815,0.3375,1.4305,0.5905,0.425,0.38,0.0895,0.026
0.52,-0.1025,-0.623,-0.2085,0.5715,-0.363,1.51,0.577,0.3325,1.428,0.5875,0.423,0.379,0.089,0.0265
0.513,-0.11,-0.624,-0.201,0.5685,-0.3675,1.5105,0.567,0.325,1.4245,0.584,0.4215,0.374,0.086,0.031
0.517,-0.1115,-0.629,-0.202,0.573,-0.3705,1.5105,0.569,0.3265,1.4245,0.585,0.4235,0.377,0.0885,0.0295
0.5195,-0.1115,-0.6315,-0.2035,0.5755,-0.372,1.512,0.572,0.3275,1.4235,0.585,0.425,0.379,0.0905,0.0295
0.521,-0.109,-0.63,-0.2055,0.5755,-0.37,1.5145,0.5725,0.3285,1.4255,0.588,0.4265,0.3795,0.094,0.032
0.5215,-0.1005,-0.622,-0.21,0.572,-0.3615,1.515,0.576,0.331,1.4285,0.5905,0.427,0.38,0.1005,0.0255
0.525,-0.095,-0.6205,-0.2145,0.5725,-0.358,1.5155,0.5765,0.332,1.431,0.59,0.4285,0.381,0.104,0.0225
0.524,-0.101,-0.6255,-0.211,0.5745,-0.3635,1.5135,0.5765,0.3315,1.4315,0.589,0.427,0.379,0.1025,0.028
0.5205,-0.104,-0.625,-0.208,0.573,-0.365,1.5095,0.573,0.327,1.427,0.585,0.4235,0.374,0.096,0.026
0.52,-0.102,-0.6225,-0.2085,0.571,-0.3625,1.5135,0.572,0.3275,1.4255,0.5835,0.4235,0.375,0.094,0.0205
0.519,-0.103,-0.6225,-0.2075,0.571,-0.363,1.515,0.5695,0.3265,1.423,0.5835,0.4225,0.3765,0.1005,0.023
0.518,-0.103,-0.6215,-0.2075,0.5695,-0.3625,1.512,0.5665,0.3215,1.4195,0.581,0.4195,0.374,0.0965,0.0205
0.5175,-0.0985,-0.6165,-0.209,0.567,-0.358,1.511,0.5735,0.327,1.4245,0.583,0.42,0.375,0.0945,0.0175
0.5165,-0.0915,-0.6085,-0.212,0.5625,-0.3505,1.512,0.5745,0.3265,1.426,0.5845,0.422,0.3755,0.104,0.013
0.516,-0.088,-0.604,-0.2135,0.56,-0.3465,1.514,0.575,0.325,1.4255,0.5865,0.423,0.376,0.1095,0.016
0.5175,-0.091,-0.609,-0.213,0.563,-0.3505,1.5115,0.574,0.325,1.4245,0.5855,0.4215,0.376,0.105,0.022
0.5175,-0.094,-0.6115,-0.2115,0.5645,-0.3535,1.5145,0.571,0.323,1.424,0.5825,0.417,0.371,0.098,0.0155
0.5165,-0.096,-0.613,-0.2095,0.5645,-0.355,1.5175,0.574,0.324,1.426,0.584,0.418,0.371,0.108,0.0205
0.518,-0.0955,-0.614,-0.2105,0.566,-0.355,1.515,0.578,0.329,1.4285,0.587,0.4205,0.377,0.1135,0.0275
0.518,-0.094,-0.6125,-0.2115,0.565,-0.354,1.509,0.569,0.3275,1.4275,0.586,0.419,0.3755,0.1145,0.0315
0.5215,-0.089,-0.6115,-0.216,0.5665,-0.351,1.5075,0.562,0.327,1.4255,0.5845,0.4185,0.372,0.118,0.0295
0.5265,-0.0865,-0.6135,-0.2195,0.57,-0.3505,1.5145,0.573,0.3305,1.426,0.585,0.4175,0.369,0.111,0.0235
0.523,-0.0905,-0.614,-0.2155,0.5685,-0.353,1.519,0.5775,0.323,1.421,0.58,0.4155,0.365,0.1085,0.0255
0.513,-0.0965,-0.6095,-0.208,0.561,-0.3535,1.5145,0.5725,0.3225,1.4185,0.5765,0.4125,0.36,0.108,0.0235
0.508,-0.099,-0.6075,-0.204,0.5575,-0.3535,1.509,0.5705,0.3215,1.418,0.576,0.413,0.36,0.1095,0.0245
0.5105,-0.0955,-0.606,-0.207,0.5585,-0.3515,1.5075,0.5695,0.3185,1.416,0.572,0.412,0.3585,0.115,0.03
0.5045,-0.0995,-0.604,-0.202,0.5545,-0.3525,1.506,0.566,0.3165,1.4115,0.5655,0.405,0.352,0.113,0.0325
0.504,-0.101,-0.6055,-0.201,0.555,-0.3535,1.509,0.5665,0.315,1.4095,0.5645,0.405,0.353,0.109,0.028
0.5065,-0.0955,-0.6025,-0.205,0.5545,-0.3495,1.5135,0.5695,0.319,1.4125,0.5665,0.407,0.3515,0.11,0.0265
0.5025,-0.0975,-0.6005,-0.202,0.5515,-0.3495,1.516,0.574,0.3175,1.412,0.5665,0.408,0.3495,0.108,0.0275
0.504,-0.102,-0.607,-0.2005,0.5555,-0.355,1.5155,0.5695,0.315,1.4095,0.5665,0.407,0.3515,0.1005,0.0275
0.507,-0.103,-0.6105,-0.2015,0.5585,-0.357,1.5115,0.5595,0.3125,1.408,0.5675,0.4075,0.353,0.099,0.0315
0.506,-0.1035,-0.6095,-0.2005,0.558,-0.357,1.515,0.5705,0.315,1.409,0.5705,0.4095,0.354,0.1025,0.0295
0.506,-0.1025,-0.609,-0.201,0.5575,-0.356,1.519,0.5745,0.3185,1.4105,0.571,0.4085,0.3505,0.107,0.0265
0.512,-0.0995,-0.612,-0.2055,0.562,-0.356,1.5185,0.564,0.3165,1.4095,0.571,0.409,0.35,0.104,0.027
0.5085,-0.1065,-0.6155,-0.2005,0.562,-0.3615,1.5185,0.5645,0.317,1.4085,0.5735,0.4085,0.3525,0.099,0.0255
0.5035,-0.111,-0.615,-0.1955,0.559,-0.3635,1.5185,0.5665,0.3175,1.4095,0.5735,0.4095,0.357,0.101,0.0245
0.5075,-0.105,-0.613,-0.201,0.5605,-0.3595,1.5205,0.5695,0.3185,1.412,0.5755,0.4095,0.3595,0.096,0.0185
0.5005,-0.1115,-0.6125,-0.194,0.5565,-0.3625,1.5205,0.568,0.317,1.41,0.5735,0.4065,0.3555,0.0905,0.0165
0.493,-0.1185,-0.612,-0.1865,0.5525,-0.3655,1.5215,0.567,0.315,1.408,0.57,0.4055,0.356,0.092,0.02
0.504,-0.108,-0.6125,-0.1975,0.5585,-0.3605,1.5225,0.5675,0.3175,1.4115,0.574,0.4095,0.364,0.095,0.0165
0.5185,-0.098,-0.617,-0.2095,0.568,-0.358,1.5225,0.57,0.3225,1.4165,0.579,0.4155,0.374,0.098,0.0275
0.5195,-0.098,-0.618,-0.2105,0.569,-0.3585,1.5245,0.5715,0.3245,1.42,0.582,0.42,0.378,0.092,0.03
0.5135,-0.097,-0.611,-0.2075,0.562,-0.3545,1.526,0.572,0.325,1.4205,0.5835,0.421,0.376,0.0955,0.012
0.5135,-0.0975,-0.6115,-0.2075,0.5625,-0.355,1.529,0.573,0.326,1.4205,0.5825,0.421,0.376,0.0995,0.015
0.511,-0.101,-0.6125,-0.2045,0.562,-0.3575,1.5265,0.5675,0.327,1.4205,0.5825,0.419,0.372,0.0985,0.0165
0.506,-0.101,-0.6075,-0.202,0.5565,-0.3545,1.5195,0.574,0.3325,1.4235,0.5845,0.418,0.3715,0.105,0.0155
0.5045,-0.1055,-0.61,-0.199,0.557,-0.3585,1.5145,0.571,0.325,1.421,0.582,0.4165,0.3695,0.1,0.022
0.508,-0.102,-0.6105,-0.2025,0.5595,-0.357,1.5155,0.571,0.323,1.42,0.583,0.417,0.365,0.102,0.023
0.5145,-0.0975,-0.6125,-0.208,0.5635,-0.3555,1.5215,0.5725,0.3305,1.426,0.5875,0.422,0.3665,0.103,0.0225
0.516,-0.1005,-0.617,-0.207,0.5665,-0.3595,1.522,0.5755,0.3295,1.4245,0.5855,0.4225,0.3655,0.0955,0.0195
0.5145,-0.1015,-0.6165,-0.206,0.5655,-0.3595,1.5265,0.5825,0.331,1.424,0.585,0.421,0.3645,0.093,0.0175
0.512,-0.1005,-0.613,-0.205,0.5625,-0.3575,1.5285,0.577,0.333,1.426,0.586,0.422,0.364,0.0985,0.017
0.515,-0.0955,-0.6105,-0.2095,0.563,-0.3535,1.528,0.579,0.334,1.425,0.581,0.4195,0.3575,0.1025,0.014
0.517,-0.099,-0.617,-0.2085,0.567,-0.3585,1.5315,0.5785,0.3305,1.4205,0.577,0.416,0.355,0.0955,0.0145
0.512,-0.105,-0.6175,-0.203,0.565,-0.362,1.5335,0.577,0.3255,1.417,0.575,0.4145,0.3565,0.0925,0.0105
0.5115,-0.106,-0.618,-0.2025,0.565,-0.3625,1.5295,0.575,0.328,1.42,0.577,0.4165,0.3605,0.0945,0.0085
0.518,-0.107,-0.6255,-0.205,0.572,-0.3665,1.5255,0.5765,0.331,1.4245,0.5805,0.419,0.3655,0.097,0.0145
0.5225,-0.1075,-0.6305,-0.207,0.5765,-0.3695,1.528,0.575,0.3265,1.422,0.5805,0.4175,0.3665,0.096,0.02
0.522,-0.104,-0.6265,-0.2085,0.574,-0.3655,1.5285,0.5755,0.3255,1.4235,0.582,0.418,0.368,0.0985,0.021
0.5175,-0.0995,-0.6175,-0.2085,0.5675,-0.359,1.534,0.5835,0.3295,1.4285,0.5845,0.42,0.3695,0.1,0.0165
0.516,-0.095,-0.6115,-0.21,0.564,-0.354,1.537,0.584,0.3335,1.427,0.5825,0.418,0.371,0.102,0.0155
0.517,-0.0885,-0.606,-0.2135,0.5615,-0.3475,1.5355,0.5845,0.338,1.4325,0.5855,0.42,0.374,0.106,0.013
0.5185,-0.083,-0.602,-0.2175,0.56,-0.343,1.534,0.584,0.339,1.437,0.5905,0.4235,0.378,0.1105,0.006
0.515,-0.087,-0.6025,-0.2135,0.559,-0.345,1.532,0.5805,0.3365,1.4325,0.5855,0.4195,0.373,0.107,0.0045
0.5075,-0.092,-0.6,-0.207,0.5535,-0.3465,1.534,0.5785,0.3325,1.428,0.5835,0.4165,0.3645,0.101,0.0035
0.5085,-0.089,-0.5985,-0.209,0.5535,-0.344,1.533,0.576,0.3305,1.4255,0.583,0.4185,0.367,0.1085,0.001
0.5115,-0.089,-0.601,-0.2105,0.556,-0.3455,1.536,0.5805,0.332,1.4265,0.584,0.42,0.37,0.109,0.001
0.514,-0.0865,-0.601,-0.2135,0.5575,-0.344,1.541,0.5865,0.334,1.4275,0.588,0.422,0.371,0.107,0.0
0.5215,-0.08,-0.602,-0.2205,0.562,-0.3415,1.54,0.5845,0.338,1.432,0.5905,0.425,0.375,0.1115,0.001
0.5255,-0.0775,-0.6035,-0.2235,0.5645,-0.341,1.541,0.5755,0.338,1.434,0.5935,0.427,0.3775,0.1095,0.002
0.52,-0.0765,-0.5965,-0.221,0.558,-0.337,1.544,0.5775,0.3355,1.4315,0.5905,0.4245,0.371,0.1045,-0.003
0.52,-0.074,-0.594,-0.2225,0.557,-0.3345,1.545,0.5945,0.341,1.436,0.5915,0.4265,0.371,0.112,-0.011
0.5195,-0.0745,-0.594,-0.2225,0.557,-0.3345,1.5415,0.5915,0.3385,1.4355,0.591,0.4245,0.3715,0.114,-0.011
0.5155,-0.071,-0.587,-0.222,0.551,-0.329,1.5405,0.5835,0.3375,1.435,0.588,0.422,0.3655,0.1145,-0.011
0.516,-0.073,-0.589,-0.2215,0.5525,-0.331,1.542,0.5835,0.3385,1.435,0.5875,0.424,0.366,0.1175,-0.0125
0.5085,-0.08,-0.589,-0.214,0.549,-0.335,1.538,0.5845,0.3385,1.4295,0.583,0.4215,0.365,0.116,-0.0125
0.514,-0.0745,-0.5885,-0.2195,0.551,-0.332,1.5425,0.59,0.342,1.43,0.5855,0.423,0.366,0.118,-0.012
0.519,-0.0715,-0.5905,-0.2235,0.5545,-0.331,1.546,0.59,0.3415,1.429,0.5865,0.4225,0.365,0.12,-0.014
0.5205,-0.067,-0.5875,-0.2265,0.554,-0.3275,1.544,0.588,0.344,1.4315,0.5875,0.4225,0.3665,0.124,-0.0185
0.531,-0.06,-0.5915,-0.2355,0.561,-0.326,1.5435,0.5935,0.348,1.4365,0.592,0.4265,0.3735,0.1215,-0.0165
0.5265,-0.067,-0.5935,-0.2295,0.56,-0.3305,1.5455,0.596,0.3425,1.4335,0.5895,0.425,0.3695,0.1215,-0.01
0.524,-0.0705,-0.5945,-0.2265,0.5595,-0.3325,1.5415,0.588,0.3415,1.432,0.5885,0.4245,0.367,0.124,-0.006
0.5295,-0.0675,-0.5975,-0.231,0.5635,-0.3325,1.54,0.5915,0.349,1.4375,0.5935,0.4295,0.3745,0.126,-0.0015
0.529,-0.0715,-0.6005,-0.2285,0.5645,-0.336,1.544,0.593,0.348,1.439,0.5945,0.4305,0.377,0.1205,-0.004
0.524,-0.0795,-0.604,-0.222,0.564,-0.342,1.543,0.594,0.3465,1.4385,0.594,0.4285,0.374,0.1145,-0.0125
0.519,-0.087,-0.6065,-0.2155,0.563,-0.3475,1.547,0.5965,0.348,1.4385,0.5925,0.429,0.3755,0.1175,-0.008
0.5205,-0.089,-0.61,-0.2155,0.565,-0.35,1.551,0.595,0.35,1.439,0.5935,0.43,0.3765,0.1115,-0.0075
0.5275,-0.088,-0.616,-0.2195,0.5715,-0.3525,1.553,0.6015,0.3525,1.4405,0.596,0.4325,0.3765,0.1085,-0.0055
0.527,-0.0855,-0.613,-0.2205,0.57,-0.3495,1.553,0.6035,0.3515,1.4405,0.5955,0.4295,0.373,0.116,-0.0115
0.528,-0.082,-0.6105,-0.2225,0.569,-0.347,1.554,0.6075,0.355,1.4415,0.5965,0.4285,0.374,0.1145,-0.0175
0.526,-0.0835,-0.61,-0.221,0.568,-0.347,1.556,0.608,0.359,1.443,0.5955,0.4285,0.3755,0.1125,-0.013
0.5165,-0.0885,-0.605,-0.2135,0.561,-0.3475,1.5585,0.6095,0.3605,1.4445,0.5935,0.4235,0.3725,0.113,-0.0225
0.5205,-0.0905,-0.6115,-0.2145,0.566,-0.3515,1.5655,0.615,0.364,1.4465,0.5935,0.424,0.375,0.1105,-0.023
0.531,-0.081,-0.6125,-0.2245,0.572,-0.3475,1.571,0.621,0.3705,1.4515,0.5955,0.4255,0.3775,0.113,-0.0255
0.5305,-0.0805,-0.6115,-0.2245,0.571,-0.3465,1.579,0.6265,0.3725,1.4485,0.5895,0.42,0.3725,0.106,-0.029
0.5245,-0.085,-0.6095,-0.2195,0.567,-0.3475,1.5865,0.6335,0.38,1.447,0.5845,0.417,0.366,0.1075,-0.0335
0.523,-0.0865,-0.61,-0.2175,0.5665,-0.349,1.596,0.652,0.3945,1.4495,0.584,0.414,0.3685,0.1065,-0.05
0.5215,-0.1015,-0.6235,-0.2095,0.5725,-0.363,1.616,0.6715,0.4015,1.4435,0.576,0.4055,0.365,0.092,-0.0565
0.5255,-0.1075,-0.6335,-0.2085,0.5795,-0.371,1.6335,0.6925,0.4175,1.4455,0.5755,0.403,0.36,0.087,-0.064
0.5245,-0.1165,-0.6415,-0.203,0.583,-0.3795,1.652,0.713,0.4305,1.445,0.574,0.4005,0.355,0.0785,-0.079
0.5195,-0.13,-0.65,-0.194,0.5845,-0.3905,1.669,0.733,0.4415,1.442,0.567,0.3945,0.348,0.069,-0.089
0.517,-0.1395,-0.6575,-0.188,0.587,-0.399,1.687,0.7565,0.458,1.443,0.5635,0.39,0.344,0.0575,-0.1
0.5085,-0.152,-0.661,-0.178,0.585,-0.407,1.7055,0.7785,0.476,1.4435,0.5565,0.3835,0.339,0.05,-0.114
0.507,-0.149,-0.6565,-0.1785,0.582,-0.403,1.72,0.8005,0.498,1.454,0.558,0.3835,0.3395,0.0585,-0.1305
0.511,-0.137,-0.6485,-0.1865,0.5795,-0.393,1.732,0.8165,0.513,1.4645,0.565,0.388,0.343,0.0675,-0.1465
0.52,-0.127,-0.647,-0.196,0.5835,-0.3875,1.7265,0.8185,0.5295,1.4795,0.576,0.3965,0.356,0.075,-0.151
0.5345,-0.1125,-0.6475,-0.2105,0.591,-0.3805,1.724,0.8175,0.542,1.4975,0.5885,0.4075,0.371,0.076,-0.156
0.547,-0.096,-0.6435,-0.225,0.5955,-0.37,1.7205,0.817,0.5475,1.51,0.599,0.4175,0.3845,0.0785,-0.1565
0.552,-0.0865,-0.639,-0.2325,0.5955,-0.363,1.713,0.817,0.559,1.5285,0.6135,0.427,0.3995,0.0835,-0.159
0.552,-0.0795,-0.632,-0.2355,0.592,-0.3565,1.713,0.824,0.576,1.548,0.6265,0.435,0.4075,0.0885,-0.1735
0.5575,-0.072,-0.6295,-0.2425,0.5935,-0.351,1.716,0.834,0.5945,1.566,0.64,0.444,0.4185,0.1,-0.1825
0.5725,-0.0525,-0.6255,-0.2595,0.599,-0.339,1.712,0.8405,0.616,1.5905,0.6585,0.457,0.4375,0.117,-0.1835
0.5835,-0.0425,-0.626,-0.2705,0.6045,-0.3345,1.707,0.843,0.6355,1.6165,0.678,0.4695,0.457,0.118,-0.1785
0.5925,-0.0445,-0.6365,-0.274,0.6145,-0.3405,1.697,0.8445,0.6495,1.643,0.6995,0.4825,0.476,0.116,-0.1745
0.609,-0.0295,-0.6385,-0.2895,0.624,-0.334,1.672,0.8415,0.6735,1.682,0.7315,0.506,0.504,0.1235,-0.176
0.628,-0.0015,-0.6295,-0.313,0.6285,-0.3155,1.649,0.828,0.692,1.7245,0.7665,0.5335,0.5345,0.138,-0.1835
0.648,0.0285,-0.6195,-0.3375,0.6335,-0.296,1.625,0.8265,0.714,1.777,0.809,0.5655,0.5735,0.16,-0.1835
0.665,0.06,-0.605,-0.362,0.635,-0.2725,1.604,0.8255,0.7495,1.839,0.8565,0.5985,0.615,0.1825,-0.1835
0.682,0.098,-0.584,-0.389,0.633,-0.243,1.575,0.8095,0.7795,1.901,0.909,0.635,0.6575,0.2065,-0.188
0.708,0.1355,-0.5725,-0.421,0.64,-0.2185,1.5445,0.799,0.8145,1.9725,0.9695,0.677,0.709,0.23,-0.182
0.7255,0.181,-0.5445,-0.4525,0.635,-0.182,1.5135,0.7815,0.845,2.046,1.0285,0.7175,0.7525,0.2685,-0.1815
0.7335,0.224,-0.5095,-0.478,0.6215,-0.143,1.475,0.755,0.87,2.1165,1.085,0.7545,0.792,0.2985,-0.184
0.7565,0.266,-0.491,-0.5105,0.624,-0.1125,1.442,0.7355,0.8965,2.189,1.1455,0.796,0.8405,0.3215,-0.1825
0.7825,0.3115,-0.472,-0.5465,0.6275,-0.0805,1.4,0.7105,0.9145,2.2605,1.21,0.845,0.8985,0.3515,-0.175
0.799,0.356,-0.4435,-0.577,0.6215,-0.044,1.3575,0.6735,0.9165,2.32,1.266,0.886,0.946,0.3895,-0.164
0.8155,0.413,-0.403,-0.6135,0.6095,0.005,1.3185,0.6365,0.92,2.3895,1.3295,0.9285,0.994,0.444,-0.1615
0.838,0.468,-0.3705,-0.6525,0.6045,0.0485,1.2705,0.601,0.927,2.465,1.398,0.9785,1.0495,0.485,-0.1545
0.855,0.513,-0.342,-0.6835,0.5985,0.085,1.224,0.561,0.9225,2.5245,1.451,1.016,1.091,0.5145,-0.1425
0.864,0.5605,-0.304,-0.7115,0.584,0.128,1.1815,0.51,0.8925,2.561,1.4925,1.047,1.1225,0.547,-0.124
0.8775,0.6085,-0.2695,-0.7425,0.5735,0.1695,1.1475,0.477,0.877,2.6045,1.542,1.0855,1.1585,0.583,-0.115
0.8905,0.6505,-0.2405,-0.77,0.566,0.2045,1.1235,0.4665,0.886,2.656,1.5895,1.1185,1.192,0.6135,-0.1205
0.901,0.6885,-0.213,-0.794,0.557,0.2375,1.103,0.457,0.8805,2.6965,1.6315,1.15,1.2235,0.6395,-0.1225
0.9155,0.7445,-0.1715,-0.8295,0.544,0.286,1.0815,0.443,0.892,2.752,1.6825,1.1865,1.2585,0.6825,-0.1295
0.9285,0.8065,-0.1225,-0.867,0.5255,0.3415,1.06,0.4305,0.907,2.8025,1.7305,1.2235,1.291,0.7305,-0.145
0.932,0.841,-0.091,-0.886,0.512,0.3745,1.038,0.41,0.897,2.84,1.7705,1.2535,1.32,0.763,-0.146
0.932,0.867,-0.0655,-0.899,0.4995,0.4005,1.013,0.38,0.8725,2.8675,1.798,1.2735,1.3425,0.794,-0.1345
0.9375,0.877,-0.0615,-0.907,0.5,0.4075,1.009,0.377,0.8535,2.8915,1.8245,1.2925,1.358,0.802,-0.137
0.9365,0.8735,-0.0635,-0.9045,0.5,0.405,1.0105,0.355,0.826,2.9105,1.8465,1.307,1.3715,0.7925,-0.1305
0.927,0.869,-0.0585,-0.8975,0.493,0.405,0.988,0.305,0.765,2.912,1.8545,1.3125,1.3815,0.791,-0.104
0.9165,0.8585,-0.0585,-0.887,0.488,0.3995,0.9645,0.259,0.68,2.8975,1.8535,1.3135,1.381,0.788,-0.0675
0.907,0.857,-0.051,-0.8815,0.4795,0.403,0.9435,0.196,0.6,2.8805,1.8505,1.314,1.3805,0.7885,-0.038
0.894,0.844,-0.051,-0.8685,0.473,0.396,0.9235,0.124,0.5215,2.858,1.84,1.307,1.3695,0.7865,-0.004
0.869,0.822,-0.047,-0.845,0.458,0.387,0.921,0.07,0.431,2.8085,1.807,1.2845,1.338,0.7765,0.028
0.859,0.804,-0.0555,-0.831,0.4575,0.374,0.9385,0.073,0.382,2.7735,1.782,1.2695,1.321,0.7565,0.0285
0.8495,0.7795,-0.0705,-0.814,0.4605,0.3545,0.9635,0.0835,0.363,2.755,1.7675,1.26,1.31,0.7315,0.0235
0.8295,0.748,-0.082,-0.788,0.456,0.3325,0.9805,0.0645,0.3155,2.7055,1.7315,1.235,1.279,0.711,0.04
0.813,0.7065,-0.1065,-0.7595,0.46,0.3,1.004,0.0635,0.254,2.626,1.673,1.1985,1.238,0.69,0.067
0.7975,0.6725,-0.1255,-0.7345,0.462,0.273,1.033,0.077,0.2145,2.5505,1.616,1.165,1.2,0.6655,0.078
0.79,0.636,-0.1545,-0.7125,0.4725,0.2405,1.058,0.085,0.1845,2.4765,1.5645,1.1375,1.1665,0.638,0.096
0.779,0.587,-0.192,-0.6825,0.486,0.197,1.0855,0.099,0.1615,2.4045,1.511,1.108,1.1295,0.6,0.109
0.7715,0.536,-0.236,-0.6535,0.504,0.1495,1.12,0.1265,0.152,2.3375,1.457,1.0775,1.09,0.565,0.1175
0.7495,0.4905,-0.2595,-0.6195,0.505,0.115,1.1665,0.1525,0.1355,2.252,1.3835,1.03,1.03,0.539,0.115
0.718,0.452,-0.266,-0.584,0.492,0.0925,1.206,0.1715,0.1065,2.152,1.2975,0.9695,0.9605,0.5115,0.103
0.691,0.405,-0.286,-0.547,0.4885,0.0595,1.242,0.1895,0.0665,2.0315,1.2005,0.9015,0.8875,0.4885,0.122
0.6545,0.3635,-0.291,-0.508,0.4725,0.036,1.287,0.215,0.037,1.9175,1.107,0.836,0.8155,0.4705,0.1315
0.6335,0.3185,-0.315,-0.475,0.474,0.0015,1.3315,0.2475,0.0175,1.82,1.031,0.787,0.7605,0.4365,0.1315
0.617,0.2645,-0.3525,-0.44,0.485,-0.0445,1.371,0.2775,-0.004,1.7175,0.9505,0.736,0.704,0.392,0.1365
0.596,0.214,-0.3825,-0.4045,0.4895,-0.0845,1.3985,0.2865,-0.0325,1.6075,0.866,0.6845,0.6435,0.3545,0.148
0.568,0.161,-0.4075,-0.3635,0.4875,-0.1235,1.4335,0.2955,-0.065,1.4945,0.7755,0.6245,0.574,0.3205,0.1585
0.5375,0.115,-0.4225,-0.3255,0.48,-0.154,1.482,0.323,-0.0775,1.3995,0.6905,0.5615,0.5015,0.2865,0.151
0.514,0.061,-0.453,-0.2875,0.4835,-0.1965,1.534,0.3645,-0.0765,1.3145,0.6145,0.5065,0.438,0.25,0.142
0.4815,0.004,-0.4775,-0.2425,0.4795,-0.237,1.589,0.409,-0.078,1.2335,0.5405,0.4495,0.3715,0.217,0.138
0.4485,-0.0415,-0.49,-0.2035,0.4695,-0.266,1.623,0.4315,-0.0905,1.158,0.4765,0.4,0.3115,0.1845,0.1285
0.423,-0.088,-0.5115,-0.1675,0.4675,-0.3,1.642,0.439,-0.1125,1.0815,0.415,0.3575,0.264,0.1495,0.133
0.4125,-0.129,-0.542,-0.141,0.477,-0.336,1.6555,0.4425,-0.1335,1.021,0.363,0.3215,0.228,0.117,0.1515
0.41,-0.176,-0.5865,-0.1165,0.498,-0.3815,1.6695,0.4565,-0.133,1.0,0.336,0.2995,0.2095,0.0775,0.16
0.4065,-0.2155,-0.6225,-0.095,0.5145,-0.4195,1.6745,0.465,-0.12,1.002,0.324,0.2845,0.1975,0.0425,0.167
0.408,-0.242,-0.651,-0.0825,0.5295,-0.447,1.6755,0.47,-0.116,1.0,0.313,0.271,0.186,0.0165,0.17
0.3995,-0.269,-0.669,-0.065,0.5345,-0.469,1.6755,0.4635,-0.121,0.9895,0.2985,0.2565,0.1725,0.0,0.1795
0.394,-0.283,-0.6775,-0.055,0.5355,-0.48,1.6675,0.4495,-0.1275,0.981,0.2885,0.2455,0.162,-0.006,0.193
0.3945,-0.299,-0.694,-0.047,0.5445,-0.4965,1.667,0.4455,-0.1235,0.9835,0.286,0.24,0.1605,-0.023,0.196
0.387,-0.3185,-0.7055,-0.0335,0.546,-0.512,1.6615,0.439,-0.1235,0.9835,0.281,0.2315,0.1535,-0.042,0.2035
0.386,-0.333,-0.7195,-0.026,0.553,-0.526,1.659,0.437,-0.1275,0.9805,0.2745,0.225,0.1485,-0.055,0.214
0.3905,-0.3365,-0.7275,-0.0265,0.559,-0.532,1.6515,0.4285,-0.126,0.984,0.2745,0.2255,0.148,-0.0595,0.216
0.393,-0.3385,-0.732,-0.027,0.5625,-0.535,1.646,0.4205,-0.1195,0.988,0.276,0.223,0.1455,-0.064,0.2195
0.3935,-0.3455,-0.739,-0.0235,0.5665,-0.5425,1.636,0.418,-0.104,1.001,0.2855,0.227,0.1535,-0.0755,0.215
0.3945,-0.346,-0.741,-0.024,0.568,-0.543,1.625,0.418,-0.093,1.0185,0.296,0.234,0.164,-0.081,0.2085
0.399,-0.348,-0.7475,-0.025,0.573,-0.548,1.6305,0.428,-0.075,1.039,0.3065,0.2395,0.171,-0.085,0.2025
0.405,-0.3495,-0.755,-0.027,0.58,-0.5525,1.624,0.437,-0.05,1.0605,0.322,0.248,0.183,-0.083,0.1975
0.4075,-0.359,-0.7665,-0.0235,0.587,-0.5625,1.628,0.4485,-0.033,1.075,0.331,0.2525,0.192,-0.0905,0.191
0.4115,-0.3665,-0.779,-0.022,0.5955,-0.573,1.6355,0.4625,-0.0145,1.0875,0.3385,0.257,0.1995,-0.1025,0.18
0.421,-0.3595,-0.7805,-0.03,0.601,-0.57,1.633,0.465,-0.004,1.0975,0.345,0.263,0.207,-0.0995,0.177
0.425,-0.3535,-0.779,-0.035,0.602,-0.566,1.631,0.468,0.0105,1.1125,0.3545,0.269,0.215,-0.1005,0.17
0.4265,-0.351,-0.778,-0.0375,0.602,-0.5645,1.6245,0.4685,0.0235,1.1285,0.3645,0.274,0.2255,-0.1015,0.1635
0.427,-0.3525,-0.7805,-0.0365,0.6035,-0.5665,1.629,0.4795,0.038,1.143,0.373,0.279,0.2335,-0.108,0.154
0.4275,-0.354,-0.782,-0.0365,0.605,-0.568,1.632,0.4905,0.0605,1.1565,0.383,0.285,0.241,-0.1135,0.141
0.435,-0.3455,-0.7805,-0.0445,0.6075,-0.563,1.627,0.4845,0.081,1.1735,0.395,0.293,0.249,-0.1045,0.1345
0.4455,-0.337,-0.783,-0.0535,0.6145,-0.56,1.634,0.511,0.1115,1.195,0.41,0.3015,0.2605,-0.1,0.119
0.4495,-0.333,-0.7825,-0.0575,0.616,-0.5575,1.653,0.54,0.1275,1.208,0.4205,0.309,0.268,-0.09,0.105
0.452,-0.322,-0.7745,-0.0645,0.613,-0.5485,1.6655,0.542,0.135,1.218,0.4265,0.3135,0.271,-0.083,0.0965
0.453,-0.3105,-0.764,-0.071,0.6085,-0.5375,1.6745,0.561,0.158,1.231,0.4345,0.317,0.2765,-0.0815,0.08
0.4555,-0.3045,-0.76,-0.075,0.6075,-0.532,1.681,0.575,0.173,1.241,0.4425,0.3235,0.2815,-0.069,0.07
0.4605,-0.291,-0.752,-0.084,0.606,-0.5215,1.67,0.567,0.1815,1.252,0.448,0.3255,0.2855,-0.0595,0.0695
0.461,-0.2755,-0.7365,-0.092,0.599,-0.506,1.658,0.561,0.1865,1.259,0.4535,0.327,0.2885,-0.049,0.069
0.458,-0.269,-0.727,-0.094,0.5925,-0.498,1.6495,0.5485,0.1955,1.2675,0.4595,0.3305,0.2885,-0.0405,0.066
0.4555,-0.262,-0.7175,-0.096,0.5865,-0.49,1.642,0.5535,0.2035,1.276,0.466,0.335,0.29,-0.0315,0.061
0.454,-0.256,-0.7105,-0.0985,0.5825,-0.483,1.6345,0.554,0.201,1.2775,0.471,0.3365,0.2955,-0.03,0.062
0.465,-0.2425,-0.7085,-0.111,0.587,-0.4755,1.619,0.5415,0.2165,1.29,0.48,0.3435,0.302,-0.027,0.061
0.479,-0.2225,-0.702,-0.1275,0.5905,-0.4625,1.601,0.5415,0.2255,1.3,0.489,0.353,0.308,-0.0115,0.061
0.48,-0.215,-0.695,-0.132,0.5875,-0.455,1.5895,0.536,0.2225,1.303,0.4895,0.354,0.308,-0.0025,0.066
0.4775,-0.213,-0.691,-0.132,0.584,-0.452,1.586,0.5365,0.226,1.308,0.4915,0.3555,0.308,0.0015,0.064
0.4725,-0.207,-0.68,-0.1325,0.576,-0.4435,1.581,0.5395,0.233,1.3155,0.4975,0.36,0.3135,0.0125,0.0605
0.468,-0.1985,-0.667,-0.134,0.5675,-0.4335,1.576,0.541,0.2435,1.323,0.501,0.361,0.315,0.0225,0.054
0.4685,-0.191,-0.66,-0.1385,0.5645,-0.426,1.576,0.5455,0.251,1.3295,0.5045,0.362,0.3155,0.0315,0.049
0.4745,-0.1795,-0.6545,-0.147,0.5645,-0.4175,1.5815,0.552,0.2595,1.3365,0.5105,0.367,0.3175,0.0425,0.043
0.478,-0.1695,-0.648,-0.154,0.563,-0.4095,1.5805,0.556,0.266,1.343,0.515,0.3725,0.3195,0.052,0.0375
0.478,-0.165,-0.643,-0.1555,0.5605,-0.4045,1.572,0.553,0.2675,1.345,0.5165,0.374,0.323,0.057,0.0365
0.48,-0.1605,-0.6405,-0.159,0.5605,-0.401,1.5605,0.5435,0.266,1.3435,0.516,0.371,0.3225,0.057,0.039
0.4825,-0.1495,-0.6325,-0.166,0.5575,-0.3915,1.5485,0.541,0.271,1.3515,0.523,0.375,0.3265,0.0655,0.0415
0.486,-0.132,-0.6185,-0.1765,0.5525,-0.376,1.538,0.5455,0.281,1.363,0.531,0.3795,0.3305,0.0755,0.023
0.4915,-0.119,-0.611,-0.186,0.5515,-0.3655,1.541,0.5525,0.2885,1.3695,0.536,0.3835,0.3325,0.077,0.0105
0.4995,-0.1075,-0.6075,-0.1955,0.5535,-0.358,1.5465,0.5645,0.2995,1.3765,0.5425,0.3905,0.34,0.0875,0.0165
0.5045,-0.1,-0.605,-0.202,0.5545,-0.353,1.539,0.5605,0.303,1.3805,0.5445,0.3925,0.343,0.1005,0.023
0.498,-0.097,-0.5955,-0.2,0.5465,-0.347,1.5245,0.561,0.3095,1.386,0.5475,0.3945,0.3465,0.107,0.0215
0.4975,-0.0895,-0.588,-0.2035,0.543,-0.3395,1.521,0.5695,0.3195,1.394,0.5535,0.397,0.35,0.1145,0.016
0.507,-0.082,-0.5895,-0.212,0.5485,-0.3365,1.5295,0.5785,0.3205,1.3965,0.5575,0.4005,0.3495,0.119,0.016
0.512,-0.0785,-0.591,-0.216,0.5515,-0.335,1.523,0.5745,0.3235,1.3995,0.5595,0.4045,0.351,0.1215,0.016
0.513,-0.0805,-0.594,-0.2155,0.5535,-0.338,1.5145,0.5695,0.3275,1.402,0.561,0.405,0.35,0.121,0.013
0.514,-0.081,-0.596,-0.216,0.555,-0.339,1.5185,0.571,0.325,1.404,0.5615,0.4045,0.351,0.1205,0.012
0.51,-0.0845,-0.595,-0.212,0.5525,-0.3405,1.527,0.567,0.3125,1.3995,0.558,0.4025,0.35,0.1165,0.013
0.4985,-0.093,-0.592,-0.2025,0.5455,-0.343,1.525,0.5795,0.319,1.3995,0.558,0.401,0.348,0.114,0.0095
0.4955,-0.092,-0.588,-0.201,0.5415,-0.3405,1.5215,0.577,0.3365,1.4095,0.5635,0.405,0.3475,0.119,0.004
0.4985,-0.086,-0.585,-0.206,0.542,-0.336,1.525,0.577,0.337,1.412,0.566,0.407,0.346,0.1165,-0.0005
0.5,-0.0805,-0.5815,-0.209,0.5405,-0.3315,1.525,0.58,0.333,1.4095,0.5645,0.4075,0.3485,0.122,0.0115
0.501,-0.083,-0.5845,-0.2085,0.5425,-0.334,1.526,0.5755,0.3285,1.405,0.5605,0.406,0.3455,0.127,0.018
0.5035,-0.0875,-0.591,-0.2075,0.5475,-0.3395,1.526,0.5755,0.3275,1.402,0.558,0.4035,0.342,0.121,0.0115
0.502,-0.084,-0.5865,-0.2085,0.544,-0.3355,1.527,0.5725,0.3305,1.405,0.5575,0.4045,0.3435,0.1195,0.0055
0.5045,-0.081,-0.5865,-0.211,0.5455,-0.3345,1.525,0.5765,0.334,1.4075,0.5595,0.4065,0.351,0.123,0.0065
0.5065,-0.0795,-0.5865,-0.213,0.5465,-0.3335,1.519,0.5745,0.335,1.408,0.5585,0.4055,0.358,0.1285,0.011
0.5075,-0.0725,-0.5805,-0.217,0.544,-0.3265,1.52,0.5765,0.339,1.4095,0.5595,0.4045,0.359,0.1285,0.005
0.5105,-0.0715,-0.5825,-0.2195,0.5465,-0.327,1.5225,0.5795,0.3425,1.413,0.5615,0.405,0.362,0.125,0.004
0.506,-0.0765,-0.5825,-0.2145,0.544,-0.33,1.521,0.579,0.344,1.415,0.563,0.407,0.3655,0.1245,0.0065
0.5085,-0.0795,-0.589,-0.214,0.5485,-0.335,1.517,0.5795,0.343,1.4145,0.5655,0.4095,0.3685,0.121,0.0045
0.512,-0.083,-0.5955,-0.214,0.554,-0.34,1.512,0.5775,0.34,1.413,0.5655,0.4115,0.366,0.1125,0.002
0.516,-0.0795,-0.5965,-0.2175,0.556,-0.3385,1.511,0.5775,0.3445,1.415,0.569,0.4135,0.3675,0.112,-0.001
0.5155,-0.0765,-0.593,-0.219,0.554,-0.335,1.5105,0.577,0.3475,1.418,0.572,0.4145,0.369,0.1195,0.0
0.5125,-0.073,-0.5855,-0.2195,0.549,-0.3295,1.5165,0.5845,0.352,1.419,0.5735,0.4145,0.363,0.1305,0.0035
0.521,-0.0665,-0.5875,-0.2265,0.5545,-0.3275,1.521,0.5895,0.355,1.4195,0.577,0.418,0.3615,0.134,0.0035
0.5195,-0.07,-0.589,-0.2245,0.554,-0.33,1.522,0.5855,0.3515,1.4155,0.5755,0.4185,0.361,0.1295,0.0025
0.521,-0.0695,-0.59,-0.2255,0.5555,-0.33,1.5235,0.5825,0.3515,1.415,0.576,0.4195,0.359,0.129,0.0005
0.527,-0.063,-0.59,-0.232,0.5585,-0.327,1.524,0.5865,0.3525,1.4175,0.5765,0.4205,0.3575,0.1325,0.0
0.524,-0.063,-0.587,-0.23,0.5555,-0.325,1.5235,0.5895,0.35,1.4155,0.575,0.421,0.357,0.1315,0.003
0.5215,-0.07,-0.5915,-0.2255,0.5565,-0.331,1.52,0.5855,0.3495,1.4185,0.577,0.423,0.3605,0.1265,0.004
0.511,-0.0775,-0.5885,-0.2165,0.5495,-0.3335,1.52,0.5855,0.3495,1.4185,0.5755,0.4195,0.36,0.126,0.0015
0.508,-0.077,-0.5855,-0.215,0.5465,-0.3315,1.5175,0.5855,0.347,1.417,0.5745,0.4185,0.3595,0.1265,0.0025
0.515,-0.076,-0.5915,-0.219,0.5535,-0.334,1.516,0.583,0.349,1.419,0.5765,0.4205,0.3615,0.1275,0.004
0.5125,-0.0785,-0.592,-0.2165,0.5525,-0.336,1.5245,0.588,0.345,1.415,0.574,0.418,0.358,0.126,-0.0005
0.5125,-0.0785,-0.5915,-0.2165,0.552,-0.3355,1.527,0.589,0.343,1.4125,0.5715,0.417,0.3595,0.1205,0.0
0.51,-0.0805,-0.591,-0.214,0.5505,-0.3365,1.522,0.5815,0.35,1.4135,0.5715,0.415,0.3585,0.113,-0.004
0.5085,-0.0855,-0.5945,-0.211,0.5515,-0.3405,1.524,0.584,0.3465,1.408,0.567,0.4115,0.3545,0.1045,-0.0065
0.511,-0.0885,-0.6,-0.211,0.5555,-0.3445,1.5215,0.5825,0.3415,1.403,0.563,0.4085,0.3565,0.1045,0.0
0.52,-0.0845,-0.6055,-0.2175,0.563,-0.3455,1.5215,0.5805,0.3455,1.4055,0.5655,0.4105,0.3625,0.109,0.0035
0.5245,-0.0785,-0.6035,-0.2225,0.564,-0.3415,1.527,0.588,0.3515,1.4085,0.57,0.414,0.365,0.1115,0.0035
0.5215,-0.0825,-0.6045,-0.219,0.563,-0.344,1.5265,0.5865,0.351,1.4065,0.5675,0.4125,0.365,0.1095,0.006
0.5215,-0.086,-0.608,-0.217,0.5645,-0.3475,1.5215,0.5805,0.35,1.4045,0.566,0.4115,0.3665,0.1045,0.0095
0.5195,-0.087,-0.607,-0.216,0.563,-0.3475,1.5235,0.5825,0.35,1.405,0.5675,0.413,0.366,0.1065,0.0115
0.514,-0.091,-0.6055,-0.211,0.5595,-0.3485,1.5255,0.581,0.347,1.403,0.568,0.4115,0.364,0.1125,0.0195
0.51,-0.0935,-0.604,-0.208,0.557,-0.3495,1.526,0.59,0.3505,1.4055,0.5695,0.4125,0.367,0.1105,0.015
0.517,-0.09,-0.6075,-0.213,0.5625,-0.3495,1.5295,0.5895,0.3515,1.406,0.571,0.4145,0.37,0.108,0.008
0.521,-0.0895,-0.6115,-0.215,0.566,-0.351,1.529,0.586,0.3465,1.401,0.5665,0.4125,0.366,0.1065,0.0085
0.521,-0.092,-0.6135,-0.214,0.567,-0.3535,1.527,0.587,0.3415,1.3995,0.562,0.4095,0.3635,0.1025,0.008
0.5225,-0.092,-0.615,-0.2145,0.5685,-0.354,1.5265,0.5815,0.34,1.402,0.563,0.4085,0.366,0.101,0.0135
0.525,-0.0905,-0.616,-0.2165,0.5705,-0.3535,1.5255,0.5955,0.349,1.4035,0.5645,0.409,0.3685,0.098,0.0045
0.525,-0.0895,-0.615,-0.217,0.57,-0.353,1.529,0.59,0.3455,1.401,0.562,0.4055,0.364,0.1035,0.0105
0.524,-0.0905,-0.6145,-0.2165,0.569,-0.353,1.533,0.589,0.3395,1.3985,0.56,0.4045,0.3615,0.1095,0.02
0.5225,-0.0845,-0.6075,-0.2185,0.565,-0.3465,1.5315,0.59,0.3475,1.4025,0.5635,0.4095,0.3635,0.1115,0.0045
0.522,-0.0805,-0.603,-0.2205,0.5625,-0.342,1.5295,0.587,0.352,1.4075,0.565,0.409,0.363,0.113,0.0075
0.528,-0.078,-0.6065,-0.2245,0.5675,-0.3425,1.5305,0.585,0.3505,1.407,0.5645,0.4085,0.3615,0.116,0.0135
0.53,-0.078,-0.6085,-0.2255,0.5695,-0.344,1.5265,0.5815,0.356,1.4105,0.5685,0.411,0.3665,0.116,0.012
0.5315,-0.0815,-0.6135,-0.2245,0.5725,-0.348,1.5235,0.5935,0.3575,1.409,0.5675,0.412,0.371,0.1135,0.0165
0.53,-0.0855,-0.6165,-0.222,0.5735,-0.3515,1.5295,0.5885,0.3455,1.4,0.5615,0.409,0.367,0.1085,0.0145
0.524,-0.0885,-0.613,-0.2175,0.5685,-0.351,1.528,0.583,0.3425,1.399,0.558,0.408,0.365,0.1015,0.011
0.5215,-0.091,-0.6125,-0.2145,0.567,-0.3525,1.5235,0.578,0.3425,1.3975,0.5565,0.4065,0.3625,0.101,0.016
0.5185,-0.093,-0.612,-0.2125,0.5655,-0.353,1.5285,0.5825,0.3455,1.396,0.557,0.4065,0.3615,0.1025,0.015
0.516,-0.0885,-0.605,-0.2135,0.5605,-0.347,1.5325,0.5905,0.3495,1.3975,0.5585,0.4075,0.3595,0.1055,0.009
0.5215,-0.0855,-0.607,-0.2175,0.564,-0.347,1.532,0.588,0.3465,1.397,0.5595,0.407,0.3585,0.104,0.0085
0.526,-0.0825,-0.609,-0.2215,0.5675,-0.346,1.5285,0.588,0.3475,1.398,0.5605,0.4075,0.36,0.102,0.012
0.5235,-0.085,-0.609,-0.219,0.5665,-0.3475,1.525,0.587,0.3475,1.398,0.5595,0.4065,0.3575,0.1015,0.0155
0.522,-0.0905,-0.613,-0.215,0.5675,-0.3525,1.523,0.582,0.3455,1.3945,0.5575,0.405,0.356,0.102,0.021
0.522,-0.093,-0.6155,-0.214,0.5685,-0.355,1.5215,0.581,0.343,1.3915,0.5545,0.4035,0.3525,0.1025,0.0195
0.525,-0.094,-0.619,-0.215,0.572,-0.357,1.5215,0.5835,0.344,1.3925,0.5565,0.4035,0.353,0.0995,0.011
0.5225,-0.093,-0.616,-0.2145,0.5695,-0.355,1.518,0.582,0.349,1.3965,0.5605,0.407,0.358,0.103,0.0145
0.5195,-0.096,-0.616,-0.2115,0.568,-0.3565,1.522,0.585,0.3465,1.394,0.558,0.408,0.3595,0.099,0.0145
0.519,-0.102,-0.621,-0.208,0.57,-0.362,1.5285,0.582,0.3405,1.3885,0.556,0.407,0.3605,0.092,0.0135
0.5125,-0.1045,-0.618,-0.2035,0.565,-0.3615,1.522,0.5805,0.339,1.3865,0.554,0.406,0.36,0.0905,0.008
0.514,-0.102,-0.617,-0.2055,0.5655,-0.36,1.518,0.579,0.3425,1.3905,0.5565,0.408,0.36,0.0875,0.011
0.5245,-0.099,-0.624,-0.212,0.574,-0.362,1.521,0.5795,0.345,1.3935,0.559,0.408,0.3615,0.0875,0.017
0.5285,-0.094,-0.623,-0.217,0.5755,-0.359,1.522,0.5845,0.337,1.388,0.5565,0.4055,0.3615,0.0845,0.011
0.525,-0.0925,-0.618,-0.216,0.5715,-0.3555,1.5175,0.5835,0.3345,1.387,0.5555,0.4045,0.3605,0.0845,0.0115
0.521,-0.093,-0.6145,-0.2135,0.568,-0.3545,1.517,0.5855,0.344,1.3915,0.558,0.4065,0.362,0.0905,0.009
0.518,-0.0955,-0.614,-0.2105,0.566,-0.355,1.5225,0.588,0.3435,1.3905,0.559,0.4085,0.3635,0.093,0.011
0.515,-0.104,-0.6195,-0.205,0.5675,-0.3625,1.5225,0.587,0.338,1.3865,0.554,0.4035,0.36,0.087,0.018
0.512,-0.108,-0.6205,-0.2015,0.5665,-0.365,1.5185,0.583,0.3385,1.3845,0.5495,0.3985,0.3545,0.084,0.02
0.5115,-0.1095,-0.6215,-0.2005,0.5665,-0.366,1.5215,0.5855,0.3365,1.382,0.546,0.3975,0.3525,0.088,0.02
0.513,-0.1095,-0.623,-0.2015,0.568,-0.3665,1.5275,0.587,0.337,1.381,0.544,0.397,0.351,0.088,0.0185
0.514,-0.106,-0.6205,-0.2035,0.567,-0.3635,1.5255,0.5885,0.338,1.379,0.5415,0.3945,0.3495,0.0915,0.015
0.51,-0.1075,-0.618,-0.2005,0.564,-0.363,1.525,0.586,0.333,1.373,0.5345,0.389,0.3455,0.0945,0.015
0.5155,-0.1055,-0.622,-0.2045,0.5685,-0.3645,1.5265,0.5805,0.3275,1.369,0.531,0.3865,0.346,0.0885,0.022
0.519,-0.105,-0.6245,-0.2065,0.5715,-0.365,1.5245,0.58,0.3285,1.3665,0.529,0.3865,0.351,0.0825,0.024
0.5135,-0.107,-0.6205,-0.203,0.567,-0.364,1.526,0.584,0.3265,1.366,0.53,0.39,0.353,0.0845,0.024
0.5165,-0.1055,-0.6225,-0.205,0.57,-0.365,1.5275,0.5865,0.3255,1.3655,0.5325,0.395,0.3555,0.087,0.0255
0.5165,-0.1085,-0.6255,-0.2035,0.571,-0.3675,1.524,0.584,0.328,1.366,0.532,0.3955,0.3565,0.083,0.024
0.5205,-0.109,-0.63,-0.2055,0.5755,-0.37,1.5235,0.5785,0.3265,1.365,0.531,0.3925,0.354,0.085,0.025
0.5225,-0.1145,-0.6375,-0.2035,0.58,-0.3765,1.5255,0.574,0.3225,1.3615,0.528,0.3895,0.35,0.0805,0.0275
0.516,-0.123,-0.6395,-0.196,0.578,-0.382,1.5275,0.579,0.315,1.357,0.524,0.388,0.3465,0.068,0.0225
0.515,-0.1215,-0.637,-0.1965,0.576,-0.3795,1.523,0.5985,0.3175,1.357,0.525,0.389,0.3475,0.0715,0.02
0.5155,-0.1185,-0.6345,-0.198,0.575,-0.377,1.52,0.6155,0.318,1.3575,0.5255,0.3895,0.344,0.076,0.023
0.515,-0.12,-0.6355,-0.197,0.5755,-0.3785,1.5235,0.615,0.316,1.3555,0.526,0.388,0.341,0.074,0.0275
0.515,-0.1225,-0.638,-0.1955,0.5765,-0.3805,1.526,0.6215,0.316,1.3545,0.5265,0.389,0.3455,0.0745,0.0305
0.5155,-0.122,-0.638,-0.1965,0.5765,-0.3805,1.5275,0.622,0.313,1.351,0.525,0.391,0.346,0.08,0.0305
0.5095,-0.126,-0.636,-0.191,0.573,-0.382,1.522,0.619,0.314,1.347,0.5225,0.39,0.343,0.0815,0.038
0.5105,-0.1245,-0.6355,-0.1925,0.573,-0.3805,1.52,0.62,0.314,1.345,0.521,0.389,0.3415,0.0735,0.0295
0.524,-0.117,-0.6415,-0.203,0.5825,-0.3795,1.522,0.6215,0.3165,1.3455,0.523,0.391,0.346,0.0755,0.026
0.5255,-0.126,-0.6515,-0.1995,0.5885,-0.3895,1.5185,0.619,0.315,1.3425,0.521,0.39,0.3485,0.073,0.0405
0.514,-0.133,-0.6475,-0.19,0.5805,-0.3905,1.52,0.616,0.309,1.3355,0.5145,0.383,0.3385,0.0645,0.0335
0.508,-0.134,-0.6425,-0.1865,0.5755,-0.3885,1.5235,0.62,0.309,1.3325,0.5105,0.3805,0.338,0.0665,0.035
0.5075,-0.1345,-0.6425,-0.186,0.575,-0.389,1.5205,0.617,0.306,1.329,0.507,0.38,0.3385,0.0715,0.0435
0.503,-0.138,-0.6415,-0.182,0.572,-0.39,1.516,0.614,0.3,1.3225,0.504,0.377,0.3335,0.0735,0.0405
0.5065,-0.141,-0.648,-0.182,0.577,-0.395,1.509,0.607,0.298,1.3205,0.501,0.3755,0.3365,0.062,0.0405
0.511,-0.1385,-0.65,-0.186,0.5805,-0.3945,1.512,0.604,0.2915,1.3165,0.4955,0.371,0.3325,0.0555,0.04
0.512,-0.1375,-0.65,-0.1865,0.581,-0.3945,1.5135,0.6115,0.2945,1.3195,0.4975,0.3735,0.3345,0.062,0.0385
0.51,-0.138,-0.649,-0.1855,0.5795,-0.394,1.5065,0.613,0.2975,1.3205,0.498,0.372,0.336,0.066,0.037
0.507,-0.139,-0.6465,-0.183,0.5765,-0.393,1.5045,0.6065,0.294,1.3195,0.497,0.37,0.333,0.0595,0.037
0.5055,-0.1405,-0.646,-0.182,0.576,-0.394,1.5,0.6035,0.2975,1.323,0.4985,0.373,0.3325,0.0535,0.038
0.506,-0.142,-0.6485,-0.1815,0.577,-0.3955,1.505,0.6105,0.2905,1.317,0.4955,0.3705,0.33,0.0565,0.041
0.5075,-0.144,-0.652,-0.181,0.5795,-0.3985,1.512,0.6195,0.293,1.3195,0.498,0.3735,0.334,0.051,0.0405
0.507,-0.1505,-0.6575,-0.1775,0.582,-0.4045,1.5105,0.6145,0.2925,1.3175,0.498,0.374,0.334,0.0435,0.043
0.512,-0.1515,-0.664,-0.1795,0.588,-0.408,1.5045,0.603,0.285,1.3125,0.4965,0.371,0.33,0.0405,0.05
0.5125,-0.149,-0.6615,-0.1815,0.587,-0.4055,1.5055,0.6075,0.288,1.3145,0.498,0.374,0.327,0.0415,0.0515
0.51,-0.1475,-0.6585,-0.181,0.5845,-0.4035,1.5015,0.606,0.29,1.315,0.499,0.377,0.3305,0.048,0.0555
0.51,-0.149,-0.6595,-0.18,0.5845,-0.4045,1.501,0.605,0.2805,1.31,0.497,0.3745,0.3295,0.054,0.061
0.509,-0.153,-0.6625,-0.1775,0.586,-0.408,1.4995,0.5995,0.2845,1.3085,0.4955,0.3725,0.3245,0.054,0.0645
0.5065,-0.1615,-0.6685,-0.172,0.5875,-0.4155,1.4955,0.598,0.2885,1.3075,0.4945,0.37,0.323,0.042,0.0625
0.5045,-0.174,-0.679,-0.1645,0.5915,-0.427,1.499,0.597,0.278,1.302,0.493,0.3685,0.3225,0.0315,0.059
0.506,-0.1775,-0.6845,-0.1635,0.595,-0.4315,1.4895,0.5935,0.2945,1.311,0.499,0.374,0.3265,0.03,0.06
0.501,-0.181,-0.682,-0.1595,0.591,-0.432,1.493,0.6035,0.294,1.3095,0.4975,0.372,0.3245,0.033,0.06
0.5055,-0.1775,-0.6835,-0.1635,0.5945,-0.431,1.5035,0.605,0.2805,1.303,0.494,0.3685,0.3225,0.041,0.067
0.517,-0.1655,-0.683,-0.175,0.6,-0.425,1.5085,0.6115,0.284,1.303,0.496,0.37,0.3215,0.039,0.061
0.515,-0.163,-0.6785,-0.1755,0.597,-0.4215,1.505,0.6075,0.279,1.297,0.4905,0.367,0.3185,0.0355,0.053
0.5065,-0.173,-0.6805,-0.1665,0.5935,-0.4275,1.501,0.6025,0.2715,1.288,0.4825,0.3625,0.314,0.037,0.066
0.5005,-0.1755,-0.6765,-0.162,0.5885,-0.4265,1.5025,0.6015,0.274,1.2835,0.481,0.362,0.3085,0.035,0.061
0.499,-0.1705,-0.67,-0.164,0.5845,-0.4205,1.4985,0.5955,0.276,1.285,0.481,0.3595,0.3055,0.0345,0.0505
0.4945,-0.1725,-0.6675,-0.1605,0.581,-0.4205,1.4975,0.592,0.2735,1.2805,0.4775,0.3575,0.305,0.0365,0.0605
0.4935,-0.1715,-0.6655,-0.1605,0.5795,-0.4185,1.498,0.598,0.2765,1.28,0.478,0.359,0.307,0.0405,0.0625
0.4915,-0.1705,-0.6625,-0.16,0.577,-0.417,1.501,0.601,0.2735,1.2775,0.477,0.3585,0.306,0.0455,0.058
0.4855,-0.172,-0.6585,-0.1565,0.572,-0.416,1.501,0.5945,0.27,1.274,0.4735,0.356,0.3045,0.054,0.059
0.493,-0.1655,-0.659,-0.163,0.5755,-0.4125,1.5015,0.5975,0.274,1.2745,0.474,0.355,0.3105,0.0575,0.065
0.5,-0.157,-0.6575,-0.171,0.5785,-0.408,1.5,0.597,0.2725,1.2715,0.472,0.354,0.3135,0.0545,0.0675
0.494,-0.158,-0.6525,-0.167,0.5735,-0.406,1.501,0.592,0.2705,1.2705,0.4685,0.3495,0.3075,0.054,0.065
0.491,-0.1605,-0.652,-0.1645,0.5715,-0.4065,1.5035,0.592,0.273,1.271,0.4685,0.349,0.3075,0.059,0.065
0.494,-0.158,-0.652,-0.1675,0.573,-0.4055,1.5045,0.6025,0.275,1.2705,0.47,0.3515,0.311,0.062,0.0665
0.489,-0.1625,-0.652,-0.1625,0.5705,-0.4075,1.5075,0.605,0.2705,1.265,0.465,0.348,0.3045,0.0565,0.0655
0.483,-0.166,-0.6495,-0.158,0.566,-0.408,1.5065,0.595,0.263,1.2565,0.4575,0.343,0.294,0.057,0.064
0.483,-0.162,-0.6455,-0.16,0.564,-0.4045,1.506,0.5935,0.263,1.254,0.457,0.342,0.2945,0.0565,0.065
0.4925,-0.153,-0.646,-0.169,0.569,-0.4,1.5035,0.601,0.2705,1.259,0.46,0.346,0.2945,0.055,0.0595
0.5,-0.1465,-0.647,-0.176,0.5735,-0.3975,1.5085,0.6055,0.271,1.2605,0.4615,0.348,0.288,0.0595,0.061
0.498,-0.1505,-0.649,-0.1735,0.5735,-0.4,1.512,0.603,0.2655,1.2575,0.459,0.345,0.284,0.0585,0.0615
0.492,-0.153,-0.6455,-0.169,0.5685,-0.3995,1.509,0.6025,0.267,1.2565,0.458,0.3435,0.2805,0.0615,0.0525
0.4865,-0.1575,-0.6445,-0.164,0.5655,-0.4015,1.5085,0.6025,0.2665,1.2565,0.457,0.3425,0.2805,0.0565,0.0525
0.4865,-0.1625,-0.6495,-0.1615,0.568,-0.4065,1.5045,0.5975,0.267,1.256,0.455,0.3415,0.2825,0.0495,0.0535
0.49,-0.161,-0.652,-0.164,0.571,-0.407,1.504,0.601,0.269,1.2515,0.452,0.3415,0.2795,0.055,0.051
0.492,-0.159,-0.6515,-0.166,0.572,-0.4055,1.507,0.606,0.2655,1.2475,0.448,0.338,0.275,0.056,0.052
0.493,-0.1615,-0.655,-0.165,0.574,-0.409,1.5065,0.6015,0.262,1.2455,0.445,0.337,0.275,0.05,0.0545
0.489,-0.1665,-0.656,-0.1605,0.5725,-0.4115,1.504,0.606,0.262,1.2425,0.4425,0.335,0.273,0.045,0.0535
0.481,-0.1675,-0.649,-0.156,0.565,-0.409,1.507,0.6055,0.264,1.2425,0.441,0.333,0.268,0.049,0.0505
0.482,-0.164,-0.6465,-0.1585,0.5645,-0.406,1.5115,0.605,0.259,1.2385,0.4385,0.334,0.267,0.054,0.0465
0.484,-0.161,-0.6455,-0.161,0.5645,-0.4035,1.507,0.609,0.2555,1.236,0.4375,0.3335,0.2675,0.051,0.0465
0.482,-0.1585,-0.641,-0.161,0.5615,-0.4005,1.504,0.604,0.2585,1.236,0.437,0.3325,0.2645,0.0525,0.0515
0.478,-0.159,-0.6375,-0.159,0.558,-0.3985,1.508,0.6025,0.2565,1.2335,0.437,0.332,0.2625,0.0535,0.054
0.486,-0.1535,-0.6395,-0.166,0.5625,-0.397,1.508,0.6025,0.2645,1.24,0.444,0.3395,0.27,0.054,0.049
0.494,-0.149,-0.644,-0.172,0.569,-0.397,1.506,0.6115,0.264,1.2415,0.4435,0.342,0.2785,0.058,0.0535
0.488,-0.157,-0.6455,-0.165,0.567,-0.402,1.504,0.616,0.2585,1.2365,0.439,0.3365,0.279,0.0505,0.061
0.4865,-0.163,-0.65,-0.161,0.568,-0.407,1.5025,0.609,0.2585,1.234,0.438,0.336,0.2775,0.0485,0.0575
0.4885,-0.163,-0.652,-0.162,0.5705,-0.408,1.5085,0.613,0.26,1.2325,0.4385,0.3365,0.2765,0.0545,0.0565
0.4935,-0.158,-0.652,-0.167,0.5725,-0.4055,1.5065,0.6155,0.27,1.2395,0.444,0.3395,0.278,0.0545,0.05
0.494,-0.1575,-0.652,-0.168,0.573,-0.4055,1.5075,0.6115,0.262,1.239,0.444,0.3405,0.278,0.0545,0.0495
0.492,-0.1575,-0.65,-0.167,0.571,-0.4045,1.516,0.6245,0.262,1.2385,0.444,0.3405,0.278,0.054,0.046
0.4915,-0.1575,-0.6495,-0.1665,0.5705,-0.404,1.518,0.631,0.2725,1.2415,0.4465,0.342,0.279,0.06,0.0455
0.491,-0.156,-0.6475,-0.167,0.569,-0.402,1.5245,0.631,0.274,1.2425,0.446,0.3415,0.2775,0.068,0.048
0.489,-0.1545,-0.644,-0.1665,0.5665,-0.3995,1.53,0.634,0.2755,1.242,0.4455,0.341,0.2755,0.0655,0.043
0.488,-0.152,-0.6405,-0.1675,0.564,-0.3965,1.5285,0.632,0.2665,1.2385,0.442,0.338,0.2765,0.0645,0.0445
0.5005,-0.139,-0.64,-0.1805,0.5705,-0.39,1.526,0.633,0.2705,1.239,0.4435,0.3385,0.279,0.0685,0.041
0.498,-0.1375,-0.6365,-0.1795,0.567,-0.3875,1.524,0.6295,0.2815,1.2425,0.4465,0.3405,0.279,0.069,0.0385
0.4865,-0.144,-0.6305,-0.1705,0.5585,-0.388,1.523,0.624,0.276,1.2385,0.4415,0.338,0.274,0.073,0.039
0.49,-0.141,-0.6315,-0.174,0.5605,-0.3865,1.5235,0.624,0.2755,1.2365,0.4405,0.3355,0.274,0.072,0.0405
0.499,-0.1315,-0.631,-0.1835,0.565,-0.382,1.5325,0.6445,0.287,1.2455,0.448,0.3415,0.284,0.0765,0.0385
0.506,-0.1295,-0.6365,-0.1875,0.571,-0.3835,1.5315,0.647,0.283,1.2425,0.4465,0.341,0.284,0.086,0.05
0.5005,-0.1315,-0.6325,-0.184,0.5665,-0.3825,1.525,0.6315,0.279,1.24,0.442,0.337,0.28,0.0845,0.0465
0.4935,-0.131,-0.6255,-0.181,0.5595,-0.379,1.5275,0.636,0.285,1.243,0.4435,0.337,0.28,0.0825,0.0285
0.4985,-0.128,-0.6275,-0.1845,0.563,-0.3785,1.5285,0.642,0.2885,1.2455,0.446,0.3375,0.2825,0.0805,0.029
0.508,-0.1175,-0.626,-0.195,0.567,-0.372,1.529,0.643,0.294,1.252,0.4495,0.3435,0.287,0.0825,0.0285
0.511,-0.111,-0.6225,-0.1995,0.5665,-0.3675,1.528,0.644,0.294,1.254,0.45,0.345,0.288,0.0875,0.0335
0.506,-0.1115,-0.618,-0.1965,0.562,-0.3655,1.526,0.643,0.2945,1.2555,0.452,0.3445,0.2905,0.0875,0.0355
0.501,-0.1145,-0.6155,-0.193,0.5585,-0.3655,1.521,0.637,0.2965,1.2575,0.4525,0.3435,0.29,0.089,0.0355
0.5,-0.1135,-0.614,-0.1925,0.557,-0.364,1.523,0.6435,0.2995,1.262,0.456,0.3455,0.291,0.0935,0.0275
0.5005,-0.1115,-0.6125,-0.1945,0.5565,-0.3625,1.5285,0.6495,0.3035,1.269,0.462,0.3495,0.294,0.0895,0.0215
0.5005,-0.11,-0.6115,-0.195,0.556,-0.361,1.5305,0.6565,0.314,1.278,0.4705,0.3525,0.297,0.09,0.015
0.4995,-0.1155,-0.6155,-0.1915,0.5575,-0.366,1.531,0.6595,0.319,1.2805,0.473,0.353,0.3,0.0915,0.009
0.499,-0.1235,-0.623,-0.1875,0.561,-0.3735,1.528,0.6535,0.312,1.273,0.467,0.348,0.298,0.0845,0.017
0.5005,-0.117,-0.618,-0.1915,0.5595,-0.368,1.529,0.658,0.318,1.277,0.4695,0.3525,0.2995,0.0915,0.0145
0.5015,-0.1095,-0.612,-0.1955,0.557,-0.3615,1.531,0.66,0.323,1.2845,0.472,0.3565,0.302,0.098,0.0125
0.514,-0.0965,-0.611,-0.2085,0.5625,-0.354,1.534,0.6655,0.329,1.2915,0.478,0.3605,0.309,0.098,0.0105
0.522,-0.0835,-0.606,-0.219,0.5645,-0.3455,1.534,0.672,0.336,1.3005,0.4875,0.368,0.3175,0.103,0.004
0.522,-0.0825,-0.605,-0.219,0.5635,-0.344,1.531,0.667,0.3355,1.3035,0.4935,0.371,0.322,0.1055,0.007
0.5225,-0.0785,-0.6015,-0.2215,0.562,-0.3405,1.528,0.6645,0.345,1.313,0.502,0.377,0.326,0.1095,0.0075
0.516,-0.077,-0.593,-0.219,0.5545,-0.3355,1.53,0.672,0.347,1.3175,0.5015,0.3745,0.3235,0.111,0.001
0.52,-0.0765,-0.597,-0.221,0.5585,-0.3375,1.5295,0.671,0.343,1.3185,0.5,0.3705,0.3245,0.11,-0.0015
0.5195,-0.075,-0.5945,-0.222,0.557,-0.335,1.529,0.6705,0.3485,1.3275,0.506,0.3735,0.3255,0.1135,-0.006
0.5195,-0.07,-0.5895,-0.2245,0.5545,-0.33,1.538,0.6775,0.3555,1.336,0.513,0.3785,0.3255,0.1215,-0.007
0.5255,-0.066,-0.5915,-0.2295,0.559,-0.329,1.537,0.68,0.3605,1.345,0.521,0.3835,0.335,0.1245,-0.007
0.521,-0.069,-0.5895,-0.2255,0.5555,-0.3295,1.5335,0.681,0.363,1.351,0.5255,0.387,0.3435,0.1185,-0.0135
0.5205,-0.068,-0.5885,-0.226,0.5545,-0.3285,1.5315,0.683,0.3705,1.36,0.53,0.3895,0.3485,0.124,-0.0165
0.5285,-0.063,-0.592,-0.2325,0.5605,-0.3275,1.53,0.6845,0.3765,1.3705,0.5385,0.3955,0.355,0.1305,-0.015
0.532,-0.059,-0.5915,-0.2365,0.562,-0.3255,1.5305,0.682,0.377,1.3725,0.5395,0.3965,0.3555,0.1265,-0.0165
0.5265,-0.057,-0.5835,-0.2345,0.555,-0.3205,1.532,0.688,0.3805,1.376,0.54,0.3975,0.355,0.126,-0.0195
0.5285,-0.0525,-0.581,-0.238,0.555,-0.317,1.5325,0.6835,0.385,1.3835,0.546,0.4025,0.36,0.135,-0.0185
0.533,-0.0435,-0.5765,-0.2445,0.555,-0.31,1.533,0.6825,0.3915,1.3905,0.5505,0.4015,0.359,0.141,-0.021
0.5355,-0.0405,-0.5755,-0.247,0.5555,-0.308,1.5395,0.7005,0.3965,1.397,0.5535,0.404,0.363,0.1415,-0.03
0.5375,-0.04,-0.5775,-0.2485,0.5575,-0.309,1.5355,0.6955,0.4005,1.4035,0.56,0.4095,0.3725,0.145,-0.0315
0.539,-0.036,-0.575,-0.251,0.557,-0.306,1.533,0.6925,0.406,1.4125,0.5675,0.415,0.3755,0.151,-0.033
0.5395,-0.0335,-0.573,-0.253,0.556,-0.3035,1.5325,0.6955,0.412,1.4205,0.573,0.4195,0.378,0.156,-0.0365
0.538,-0.0305,-0.5685,-0.2535,0.553,-0.3,1.5335,0.7005,0.4155,1.4295,0.579,0.423,0.3835,0.1555,-0.039
0.541,-0.0265,-0.5675,-0.257,0.5545,-0.2975,1.536,0.704,0.4205,1.4365,0.5835,0.4255,0.3875,0.1515,-0.0445
0.547,-0.02,-0.5675,-0.2635,0.5575,-0.294,1.532,0.698,0.4245,1.441,0.5875,0.428,0.391,0.1505,-0.046
0.5505,-0.014,-0.565,-0.268,0.5575,-0.2895,1.5365,0.705,0.4245,1.4455,0.5915,0.43,0.3915,0.1585,-0.046
0.555,-0.0085,-0.564,-0.273,0.5595,-0.2865,1.5385,0.7125,0.4355,1.4545,0.599,0.4345,0.396,0.1665,-0.0495
0.5565,-0.008,-0.5645,-0.274,0.5605,-0.2865,1.5345,0.7135,0.443,1.462,0.6055,0.4385,0.4025,0.1635,-0.053
0.555,-0.006,-0.561,-0.2745,0.558,-0.2835,1.531,0.709,0.443,1.469,0.6105,0.4415,0.409,0.1685,-0.0505
0.5595,0.002,-0.558,-0.2805,0.559,-0.2785,1.532,0.716,0.447,1.4755,0.6175,0.4455,0.4175,0.1705,-0.0525
0.5615,0.0055,-0.556,-0.283,0.5585,-0.2755,1.5345,0.7145,0.453,1.48,0.622,0.4455,0.4195,0.171,-0.0555
0.5595,0.0085,-0.551,-0.284,0.5555,-0.2715,1.5305,0.708,0.463,1.492,0.6275,0.449,0.424,0.1765,-0.056
0.557,0.008,-0.549,-0.282,0.553,-0.271,1.5335,0.7215,0.4625,1.4995,0.6335,0.4535,0.427,0.1775,-0.0625
0.5585,0.013,-0.5455,-0.2855,0.552,-0.2665,1.537,0.7235,0.463,1.505,0.638,0.4575,0.4285,0.1805,-0.0655
0.5615,0.0195,-0.542,-0.2905,0.5515,-0.2615,1.5365,0.7245,0.473,1.512,0.6425,0.4615,0.432,0.184,-0.07
0.5605,0.02,-0.5405,-0.29,0.5505,-0.2605,1.5375,0.725,0.474,1.514,0.644,0.462,0.4335,0.1865,-0.073
0.553,0.009,-0.544,-0.281,0.5485,-0.2675,1.5365,0.723,0.4705,1.513,0.6425,0.4605,0.4325,0.1805,-0.0665
0.5545,0.006,-0.549,-0.28,0.5515,-0.2715,1.541,0.728,0.4735,1.5175,0.6465,0.4625,0.433,0.1755,-0.068
0.566,0.0185,-0.5475,-0.292,0.557,-0.265,1.5415,0.729,0.48,1.525,0.652,0.466,0.435,0.1775,-0.083
0.564,0.017,-0.547,-0.2905,0.5555,-0.265,1.542,0.727,0.48,1.526,0.6515,0.4655,0.432,0.176,-0.0825
0.5585,0.0095,-0.549,-0.284,0.554,-0.27,1.5405,0.724,0.4815,1.5285,0.6505,0.464,0.433,0.1735,-0.078
0.554,0.0075,-0.5465,-0.2805,0.55,-0.2695,1.538,0.7275,0.4835,1.53,0.652,0.4645,0.431,0.1735,-0.085
0.559,0.0115,-0.547,-0.285,0.553,-0.268,1.5395,0.7265,0.479,1.5295,0.652,0.465,0.4345,0.177,-0.0785
0.557,0.0115,-0.5455,-0.284,0.5515,-0.267,1.5375,0.7265,0.486,1.5345,0.654,0.466,0.438,0.1775,-0.077
0.5575,0.012,-0.545,-0.2845,0.5515,-0.2665,1.5425,0.732,0.49,1.539,0.6555,0.4685,0.4365,0.1765,-0.08
0.5665,0.016,-0.5505,-0.291,0.558,-0.2675,1.545,0.733,0.4875,1.539,0.655,0.469,0.44,0.1795,-0.0765
0.561,0.011,-0.55,-0.286,0.5555,-0.27,1.544,0.725,0.486,1.5385,0.653,0.4665,0.4395,0.1755,-0.0785
0.561,0.011,-0.55,-0.2855,0.5555,-0.2695,1.5455,0.729,0.4895,1.544,0.6535,0.469,0.4395,0.173,-0.081
0.565,0.0125,-0.552,-0.2885,0.5585,-0.27,1.5555,0.7385,0.4895,1.5445,0.654,0.4685,0.436,0.1755,-0.083
0.5655,0.0105,-0.555,-0.2875,0.56,-0.2725,1.563,0.738,0.482,1.5415,0.6515,0.4665,0.435,0.179,-0.08
0.559,0.0075,-0.5515,-0.283,0.5555,-0.2725,1.5575,0.7365,0.48,1.5395,0.649,0.463,0.435,0.183,-0.076
0.5525,0.006,-0.547,-0.279,0.55,-0.2705,1.5545,0.7295,0.479,1.538,0.648,0.4615,0.433,0.1805,-0.075
0.56,0.0095,-0.5505,-0.2845,0.5555,-0.271,1.554,0.7295,0.481,1.5405,0.652,0.467,0.4365,0.1755,-0.0715
0.5635,0.0095,-0.554,-0.286,0.5585,-0.2725,1.5505,0.7255,0.4815,1.542,0.653,0.467,0.4415,0.1765,-0.071
0.56,0.009,-0.551,-0.284,0.5555,-0.2715,1.553,0.727,0.482,1.5445,0.6545,0.4665,0.4475,0.1785,-0.0715
0.5575,0.011,-0.547,-0.284,0.552,-0.2685,1.5545,0.7315,0.479,1.5445,0.656,0.4655,0.448,0.174,-0.0755
0.5595,0.009,-0.5505,-0.284,0.555,-0.271,1.5555,0.7235,0.467,1.537,0.654,0.464,0.4455,0.1745,-0.07
0.5615,0.0055,-0.556,-0.2835,0.559,-0.2755,1.5565,0.722,0.459,1.5325,0.653,0.463,0.445,0.1755,-0.0655
0.5575,0.003,-0.5545,-0.28,0.556,-0.276,1.555,0.7235,0.464,1.5355,0.657,0.4645,0.447,0.169,-0.074
0.5575,0.001,-0.5565,-0.279,0.557,-0.278,1.5535,0.7165,0.465,1.5345,0.657,0.4655,0.446,0.168,-0.0715
0.558,-0.001,-0.5595,-0.278,0.559,-0.2805,1.554,0.717,0.4605,1.534,0.654,0.464,0.4405,0.1675,-0.0665
0.5525,-0.0105,-0.563,-0.271,0.558,-0.287,1.554,0.7145,0.46,1.531,0.6515,0.4635,0.4385,0.159,-0.0645
0.542,-0.0215,-0.5635,-0.26,0.5525,-0.2925,1.5515,0.7055,0.4515,1.5235,0.6455,0.4585,0.4275,0.1625,-0.0625
0.5445,-0.019,-0.5635,-0.2625,0.554,-0.2915,1.557,0.715,0.4475,1.5225,0.646,0.46,0.4195,0.1595,-0.0685
0.55,-0.016,-0.5655,-0.267,0.5575,-0.291,1.561,0.719,0.453,1.524,0.649,0.4615,0.421,0.152,-0.074
0.552,-0.019,-0.571,-0.2665,0.5615,-0.2955,1.555,0.704,0.4555,1.528,0.6485,0.4595,0.4235,0.1535,-0.061
0.5565,-0.014,-0.5705,-0.271,0.5635,-0.2925,1.551,0.7005,0.4525,1.5275,0.6485,0.461,0.424,0.153,-0.0635
0.5575,-0.0085,-0.566,-0.274,0.5615,-0.2875,1.5635,0.712,0.4505,1.5255,0.646,0.4585,0.4195,0.154,-0.0705
0.555,-0.012,-0.567,-0.271,0.561,-0.29,1.572,0.713,0.4455,1.5195,0.641,0.4555,0.4185,0.1565,-0.0545
0.5515,-0.0155,-0.567,-0.268,0.559,-0.2915,1.5705,0.7065,0.4395,1.514,0.6385,0.4535,0.418,0.158,-0.0525
0.552,-0.0225,-0.5745,-0.2645,0.563,-0.2985,1.5625,0.7045,0.441,1.5125,0.6375,0.4535,0.42,0.1525,-0.0505
0.547,-0.0335,-0.5805,-0.2565,0.564,-0.307,1.5575,0.7085,0.438,1.508,0.6325,0.4495,0.4165,0.139,-0.0525
0.5415,-0.042,-0.584,-0.2495,0.563,-0.313,1.5615,0.7035,0.433,1.5035,0.6295,0.446,0.413,0.1255,-0.0605
0.535,-0.05,-0.5845,-0.242,0.5595,-0.3175,1.558,0.701,0.436,1.5055,0.6295,0.4465,0.4145,0.1275,-0.0565
0.5335,-0.0515,-0.585,-0.241,0.5595,-0.3185,1.559,0.7045,0.436,1.5075,0.6325,0.448,0.4165,0.1255,-0.0545
0.538,-0.0485,-0.5865,-0.2445,0.562,-0.3175,1.563,0.699,0.4265,1.5025,0.6315,0.4475,0.415,0.124,-0.0605
0.537,-0.0455,-0.5825,-0.2455,0.56,-0.314,1.563,0.6955,0.4225,1.5,0.6285,0.4445,0.413,0.131,-0.0575
0.5375,-0.0485,-0.586,-0.2445,0.562,-0.3175,1.562,0.69,0.4185,1.495,0.6255,0.442,0.4095,0.125,-0.049
0.542,-0.05,-0.592,-0.2455,0.567,-0.3215,1.5595,0.689,0.4155,1.491,0.624,0.441,0.4045,0.1225,-0.0465
0.5415,-0.0525,-0.594,-0.2445,0.5675,-0.3235,1.564,0.691,0.417,1.4905,0.623,0.442,0.4055,0.125,-0.0475
0.5385,-0.0545,-0.593,-0.242,0.566,-0.324,1.561,0.6845,0.4105,1.4875,0.6195,0.441,0.405,0.1255,-0.0445
0.541,-0.051,-0.592,-0.2445,0.5665,-0.322,1.5545,0.679,0.406,1.4845,0.617,0.44,0.4025,0.1255,-0.041
0.5355,-0.056,-0.5915,-0.2395,0.5635,-0.324,1.553,0.677,0.4,1.479,0.6125,0.438,0.3985,0.118,-0.037
0.536,-0.0535,-0.589,-0.241,0.5625,-0.3215,1.5485,0.675,0.3975,1.4765,0.61,0.437,0.4,0.1195,-0.0315
0.54,-0.047,-0.587,-0.2465,0.5635,-0.317,1.5465,0.6745,0.3985,1.478,0.6115,0.44,0.403,0.128,-0.0285
0.5395,-0.048,-0.5875,-0.2455,0.5635,-0.318,1.5395,0.6685,0.399,1.478,0.613,0.4405,0.4055,0.127,-0.0225
0.5405,-0.0505,-0.591,-0.245,0.5655,-0.321,1.534,0.666,0.3945,1.4715,0.608,0.439,0.4035,0.1235,-0.02
0.5395,-0.051,-0.5905,-0.244,0.565,-0.321,1.5355,0.6675,0.385,1.4635,0.6045,0.437,0.4015,0.125,-0.02
0.54,-0.048,-0.588,-0.246,0.564,-0.3185,1.532,0.6645,0.385,1.463,0.606,0.438,0.401,0.1345,-0.0195
0.541,-0.0475,-0.589,-0.2465,0.565,-0.3185,1.529,0.661,0.3835,1.4635,0.6065,0.4405,0.402,0.1385,-0.0195
0.5405,-0.048,-0.588,-0.246,0.564,-0.318,1.528,0.66,0.3835,1.466,0.6065,0.44,0.407,0.1345,-0.012
0.537,-0.055,-0.5915,-0.2405,0.5645,-0.3235,1.5275,0.658,0.379,1.4625,0.6035,0.437,0.4065,0.126,-0.0095
0.5365,-0.0555,-0.5915,-0.2405,0.564,-0.324,1.5235,0.653,0.3825,1.465,0.6065,0.441,0.4095,0.128,-0.0115
0.54,-0.05,-0.59,-0.245,0.565,-0.32,1.5245,0.6625,0.388,1.4695,0.609,0.4435,0.411,0.132,-0.0135
0.5465,-0.048,-0.5945,-0.249,0.5705,-0.3215,1.531,0.6635,0.3855,1.469,0.608,0.4435,0.4075,0.123,-0.013
0.5505,-0.0465,-0.5965,-0.252,0.5735,-0.3215,1.5335,0.6575,0.384,1.4685,0.6095,0.443,0.4055,0.1195,-0.0105
0.548,-0.052,-0.6,-0.248,0.574,-0.3265,1.5335,0.662,0.3785,1.465,0.607,0.441,0.405,0.112,-0.0155
0.542,-0.06,-0.602,-0.241,0.572,-0.3315,1.5295,0.6615,0.382,1.4675,0.6075,0.44,0.4055,0.1155,-0.014
0.534,-0.0625,-0.5965,-0.2355,0.565,-0.3295,1.529,0.658,0.382,1.4675,0.608,0.44,0.403,0.1215,-0.013
0.5325,-0.0595,-0.592,-0.2365,0.5625,-0.326,1.533,0.6575,0.3775,1.466,0.607,0.4405,0.4025,0.12,-0.014
0.537,-0.0555,-0.5925,-0.2405,0.5645,-0.324,1.5315,0.655,0.377,1.466,0.607,0.4405,0.3995,0.1255,-0.0085
0.538,-0.058,-0.596,-0.24,0.567,-0.3275,1.53,0.654,0.3745,1.4645,0.607,0.4385,0.3995,0.1225,-0.011
0.5335,-0.061,-0.5945,-0.236,0.564,-0.328,1.5255,0.6505,0.3745,1.468,0.608,0.4385,0.4045,0.1235,-0.014
0.5335,-0.0635,-0.5965,-0.235,0.565,-0.33,1.5225,0.6505,0.37,1.4645,0.6065,0.4395,0.407,0.1265,-0.0105
0.535,-0.067,-0.602,-0.2335,0.5685,-0.335,1.5225,0.65,0.36,1.459,0.604,0.438,0.405,0.118,-0.002
0.5335,-0.0695,-0.6025,-0.2315,0.568,-0.3365,1.514,0.6415,0.3645,1.462,0.6055,0.439,0.4015,0.112,-0.0065
0.526,-0.0775,-0.6035,-0.224,0.5645,-0.3405,1.5155,0.6385,0.3655,1.46,0.603,0.439,0.4,0.115,-0.003
0.5215,-0.0815,-0.6035,-0.2195,0.5625,-0.343,1.516,0.6375,0.36,1.4555,0.599,0.436,0.397,0.1135,0.0025
0.525,-0.0815,-0.607,-0.2215,0.566,-0.345,1.51,0.6335,0.3545,1.45,0.595,0.435,0.393,0.105,0.0
0.5235,-0.081,-0.6055,-0.221,0.5645,-0.344,1.5045,0.619,0.345,1.4495,0.5945,0.4355,0.3925,0.1075,0.0085
0.525,-0.0775,-0.603,-0.2235,0.5645,-0.3405,1.504,0.6205,0.3445,1.449,0.5955,0.435,0.389,0.113,0.0075
0.5255,-0.074,-0.5995,-0.2255,0.5625,-0.3375,1.4965,0.617,0.3485,1.448,0.595,0.433,0.3865,0.1175,0.009
0.526,-0.071,-0.5975,-0.227,0.562,-0.3345,1.49,0.609,0.345,1.4475,0.594,0.4295,0.385,0.1175,0.0085
0.5235,-0.0745,-0.5985,-0.2245,0.561,-0.337,1.4985,0.6075,0.3415,1.445,0.5915,0.4285,0.383,0.113,0.0055
0.517,-0.079,-0.597,-0.2185,0.557,-0.3385,1.4955,0.608,0.3465,1.4485,0.593,0.429,0.3825,0.1105,0.002
0.5185,-0.08,-0.5985,-0.219,0.5585,-0.3395,1.499,0.6145,0.344,1.447,0.593,0.429,0.3805,0.1115,0.0005
0.514,-0.0805,-0.5945,-0.2165,0.554,-0.3375,1.4985,0.604,0.3375,1.4445,0.59,0.426,0.376,0.115,0.002
0.5145,-0.0795,-0.594,-0.217,0.5545,-0.337,1.4925,0.602,0.335,1.4435,0.5885,0.424,0.3755,0.117,0.0135
0.517,-0.0775,-0.5955,-0.2195,0.5565,-0.337,1.4935,0.602,0.332,1.4405,0.589,0.4245,0.3795,0.121,0.021
0.5135,-0.076,-0.5895,-0.2185,0.5515,-0.333,1.4925,0.5955,0.3315,1.441,0.5885,0.4245,0.376,0.1165,0.0015
0.509,-0.0765,-0.586,-0.216,0.5475,-0.332,1.497,0.604,0.3365,1.4445,0.589,0.425,0.373,0.119,-0.003
0.51,-0.0755,-0.5855,-0.217,0.5475,-0.3305,1.5,0.6075,0.336,1.445,0.59,0.424,0.3715,0.1225,-0.0015
0.512,-0.076,-0.5885,-0.2175,0.5505,-0.333,1.492,0.5965,0.328,1.4385,0.5865,0.42,0.37,0.114,-0.001
0.5105,-0.0785,-0.5895,-0.2155,0.55,-0.3345,1.49,0.5925,0.325,1.4335,0.5835,0.4195,0.3685,0.1145,0.0015
0.519,-0.0725,-0.592,-0.223,0.5555,-0.3325,1.498,0.6065,0.3285,1.434,0.5845,0.421,0.366,0.118,-0.002
0.52,-0.07,-0.59,-0.2245,0.555,-0.3305,1.5,0.61,0.3355,1.438,0.5865,0.4205,0.368,0.119,-0.001
0.5155,-0.074,-0.5895,-0.2205,0.5525,-0.332,1.4985,0.602,0.3325,1.4375,0.5855,0.42,0.3685,0.1115,0.001
0.5115,-0.076,-0.588,-0.2175,0.55,-0.332,1.497,0.6,0.328,1.434,0.5815,0.416,0.3645,0.109,0.0005
0.514,-0.0685,-0.5825,-0.2225,0.5485,-0.326,1.492,0.5925,0.33,1.4345,0.5805,0.416,0.365,0.119,0.0035
0.5245,-0.059,-0.5835,-0.2325,0.554,-0.3215,1.4945,0.5955,0.3315,1.4365,0.5805,0.4185,0.3685,0.123,0.008
0.5195,-0.056,-0.5755,-0.2315,0.5475,-0.316,1.4975,0.603,0.3365,1.4395,0.5825,0.4185,0.3695,0.128,0.004
0.5135,-0.0595,-0.5725,-0.227,0.543,-0.3165,1.4955,0.5995,0.3325,1.4365,0.5785,0.4145,0.367,0.1215,-0.0005
0.514,-0.0625,-0.577,-0.2255,0.5455,-0.32,1.496,0.5985,0.3325,1.4335,0.575,0.413,0.3635,0.117,0.0005
0.512,-0.067,-0.579,-0.222,0.5455,-0.323,1.498,0.6025,0.3365,1.434,0.574,0.414,0.3665,0.1245,0.001
0.508,-0.0765,-0.585,-0.2155,0.5465,-0.331,1.498,0.6,0.33,1.4255,0.5685,0.4105,0.366,0.114,0.0065
0.506,-0.081,-0.5875,-0.212,0.5465,-0.3345,1.4895,0.598,0.327,1.419,0.5635,0.4075,0.3635,0.1065,0.011
0.508,-0.082,-0.59,-0.2125,0.549,-0.3365,1.4935,0.599,0.327,1.417,0.564,0.4085,0.3615,0.106,0.0095
0.515,-0.076,-0.5915,-0.219,0.553,-0.334,1.4915,0.596,0.333,1.4245,0.5685,0.412,0.3655,0.11,0.0105
0.519,-0.071,-0.59,-0.2235,0.5545,-0.331,1.4845,0.6015,0.3365,1.4275,0.572,0.414,0.3715,0.115,0.0085
0.5195,-0.0695,-0.589,-0.2245,0.554,-0.3295,1.497,0.6045,0.33,1.4215,0.5715,0.4125,0.369,0.1145,-0.0005
0.5155,-0.0735,-0.5895,-0.2205,0.5525,-0.332,1.497,0.598,0.331,1.425,0.573,0.4145,0.3695,0.116,0.0045
0.511,-0.0785,-0.59,-0.216,0.5505,-0.335,1.4985,0.601,0.3345,1.428,0.5765,0.417,0.374,0.119,0.0135
0.5065,-0.074,-0.581,-0.216,0.544,-0.328,1.494,0.6025,0.335,1.4315,0.5785,0.4165,0.3805,0.1195,0.0075
0.513,-0.065,-0.578,-0.2235,0.5455,-0.322,1.488,0.605,0.337,1.436,0.583,0.4205,0.388,0.12,0.006
0.522,-0.0515,-0.5735,-0.235,0.5475,-0.313,1.494,0.6055,0.3365,1.4365,0.5855,0.4215,0.3885,0.129,0.006
0.522,-0.0475,-0.569,-0.237,0.5455,-0.3085,1.491,0.5995,0.3365,1.437,0.587,0.422,0.387,0.1325,0.009
0.5275,-0.0495,-0.577,-0.2385,0.552,-0.3135,1.4885,0.604,0.339,1.4375,0.5905,0.425,0.3915,0.1245,0.0085
0.5245,-0.053,-0.5775,-0.2355,0.551,-0.3155,1.4925,0.6015,0.335,1.4365,0.5895,0.424,0.391,0.1205,0.003
0.519,-0.0545,-0.5735,-0.232,0.5465,-0.314,1.491,0.599,0.3415,1.443,0.592,0.426,0.392,0.126,-0.001
0.517,-0.0575,-0.5745,-0.23,0.546,-0.316,1.494,0.608,0.346,1.447,0.594,0.427,0.396,0.1295,-0.0035
0.5195,-0.0565,-0.576,-0.2315,0.548,-0.3165,1.502,0.606,0.339,1.4425,0.593,0.428,0.3985,0.13,0.002
0.5245,-0.051,-0.5755,-0.2365,0.55,-0.313,1.5005,0.604,0.341,1.445,0.5965,0.4305,0.4025,0.1335,0.0045
0.5215,-0.0505,-0.572,-0.235,0.547,-0.3115,1.4995,0.6075,0.342,1.447,0.5975,0.4315,0.402,0.139,0.005
0.525,-0.047,-0.572,-0.2385,0.5485,-0.31,1.5,0.6085,0.3445,1.4515,0.6015,0.437,0.4065,0.138,0.006
0.5295,-0.0435,-0.573,-0.2425,0.551,-0.308,1.498,0.607,0.346,1.4535,0.6035,0.4365,0.406,0.1345,0.004
0.529,-0.0455,-0.574,-0.2415,0.5515,-0.31,1.496,0.6055,0.3425,1.448,0.5985,0.4325,0.399,0.1375,0.007
0.5225,-0.0485,-0.571,-0.2365,0.5465,-0.31,1.4965,0.6105,0.3375,1.4445,0.595,0.43,0.3925,0.1415,0.007
0.52,-0.047,-0.567,-0.2365,0.5435,-0.307,1.496,0.6085,0.34,1.443,0.595,0.427,0.3865,0.142,-0.0005
0.5225,-0.043,-0.5655,-0.2395,0.544,-0.3045,1.496,0.6045,0.3435,1.445,0.596,0.426,0.381,0.143,-0.0035
0.5245,-0.04,-0.5645,-0.242,0.5445,-0.3025,1.499,0.605,0.34,1.447,0.5945,0.425,0.377,0.14,-0.007
0.5255,-0.041,-0.5665,-0.242,0.546,-0.304,1.4975,0.6065,0.3455,1.4515,0.596,0.425,0.381,0.141,-0.011
0.521,-0.043,-0.564,-0.2385,0.5425,-0.304,1.4995,0.6085,0.3445,1.452,0.5975,0.4245,0.3785,0.142,-0.0155
0.521,-0.0435,-0.564,-0.2385,0.5425,-0.304,1.502,0.6115,0.3385,1.449,0.596,0.4245,0.376,0.14,-0.0145
0.5185,-0.046,-0.565,-0.236,0.542,-0.306,1.5015,0.6125,0.347,1.4525,0.596,0.425,0.377,0.1485,-0.0125
0.5195,-0.044,-0.5635,-0.2375,0.5415,-0.304,1.5025,0.614,0.351,1.454,0.598,0.428,0.379,0.1495,-0.014
0.5235,-0.0415,-0.565,-0.241,0.5445,-0.3035,1.501,0.6155,0.3515,1.454,0.5985,0.4305,0.381,0.15,-0.0105
0.5315,-0.041,-0.5725,-0.245,0.552,-0.307,1.502,0.615,0.3515,1.4555,0.597,0.43,0.381,0.1475,-0.0125
0.5375,-0.0415,-0.579,-0.2475,0.5585,-0.3105,1.5025,0.615,0.3495,1.4545,0.597,0.4305,0.3835,0.1395,-0.012
0.536,-0.044,-0.58,-0.2455,0.5575,-0.312,1.5035,0.612,0.349,1.4555,0.598,0.43,0.3835,0.138,-0.0115
0.531,-0.0445,-0.576,-0.243,0.5535,-0.3105,1.504,0.614,0.348,1.4545,0.596,0.4285,0.3805,0.133,-0.0155
0.53,-0.0415,-0.571,-0.244,0.5505,-0.3065,1.503,0.6195,0.3585,1.462,0.6005,0.4325,0.3815,0.1345,-0.02
0.532,-0.0385,-0.5705,-0.2465,0.551,-0.305,1.51,0.6255,0.3605,1.4655,0.6055,0.438,0.386,0.134,-0.0235
0.5265,-0.0425,-0.569,-0.2415,0.5475,-0.306,1.513,0.6235,0.3505,1.4575,0.5995,0.435,0.3855,0.1345,-0.02
0.5325,-0.039,-0.5715,-0.2465,0.552,-0.3055,1.5125,0.626,0.359,1.463,0.6025,0.434,0.387,0.1385,-0.025
0.538,-0.0365,-0.575,-0.2505,0.5565,-0.306,1.5075,0.63,0.3665,1.4675,0.6065,0.4375,0.39,0.136,-0.0285
0.5375,-0.037,-0.575,-0.25,0.5565,-0.306,1.5085,0.6245,0.367,1.4665,0.6055,0.4385,0.391,0.1365,-0.024
0.5405,-0.0355,-0.576,-0.252,0.558,-0.306,1.5165,0.6325,0.37,1.4685,0.6075,0.4395,0.394,0.137,-0.026
0.5385,-0.04,-0.578,-0.249,0.5585,-0.3095,1.517,0.637,0.3665,1.466,0.607,0.4375,0.393,0.132,-0.0275
0.538,-0.0395,-0.5775,-0.249,0.5575,-0.3085,1.5175,0.632,0.364,1.467,0.6075,0.436,0.3905,0.1295,-0.028
0.5335,-0.0395,-0.5725,-0.2465,0.553,-0.306,1.516,0.6335,0.3665,1.469,0.607,0.4355,0.3905,0.132,-0.031
0.5285,-0.0405,-0.569,-0.244,0.5485,-0.3045,1.5175,0.6315,0.3665,1.468,0.6065,0.435,0.39,0.1365,-0.0325
0.5275,-0.0395,-0.567,-0.244,0.547,-0.3035,1.52,0.632,0.368,1.469,0.6075,0.437,0.3915,0.1415,-0.029
0.5245,-0.0415,-0.566,-0.241,0.5455,-0.304,1.5205,0.6325,0.3695,1.467,0.6055,0.436,0.3905,0.14,-0.0255
0.5255,-0.043,-0.5685,-0.241,0.547,-0.306,1.5195,0.6285,0.371,1.4665,0.6045,0.4345,0.39,0.1315,-0.0285
0.5275,-0.042,-0.5695,-0.2425,0.5485,-0.306,1.519,0.6295,0.373,1.4665,0.603,0.434,0.3925,0.133,-0.03
0.5275,-0.044,-0.5715,-0.2415,0.5495,-0.308,1.5225,0.6375,0.372,1.465,0.6005,0.432,0.3955,0.136,-0.0295
0.523,-0.0505,-0.5735,-0.2355,0.548,-0.3125,1.522,0.6345,0.3705,1.463,0.6,0.4295,0.394,0.13,-0.0325
0.5205,-0.0505,-0.571,-0.2345,0.5455,-0.311,1.519,0.626,0.3675,1.464,0.6015,0.431,0.3935,0.1365,-0.025
0.527,-0.0455,-0.572,-0.2405,0.5495,-0.309,1.515,0.635,0.372,1.4695,0.608,0.438,0.4015,0.1365,-0.028
0.5335,-0.041,-0.5745,-0.246,0.554,-0.308,1.5145,0.639,0.3785,1.474,0.6135,0.442,0.4075,0.1335,-0.031
0.5395,-0.0385,-0.578,-0.2505,0.559,-0.3085,1.519,0.64,0.3825,1.4785,0.6155,0.4435,0.4125,0.1355,-0.0285
0.545,-0.032,-0.577,-0.2565,0.561,-0.3045,1.521,0.6465,0.387,1.482,0.617,0.4445,0.415,0.1395,-0.039
0.5445,-0.031,-0.5755,-0.2565,0.56,-0.3035,1.52,0.647,0.3865,1.485,0.6205,0.446,0.415,0.144,-0.036
0.541,-0.0305,-0.5715,-0.255,0.556,-0.301,1.5175,0.647,0.386,1.486,0.6205,0.4475,0.419,0.135,-0.0325
0.541,-0.029,-0.57,-0.2555,0.5555,-0.3,1.514,0.6455,0.3865,1.4835,0.619,0.4475,0.4185,0.1325,-0.0345
0.538,-0.0325,-0.571,-0.2525,0.5545,-0.3025,1.515,0.6455,0.3865,1.4835,0.619,0.445,0.4135,0.1355,-0.036
0.5335,-0.036,-0.5695,-0.2485,0.5515,-0.303,1.516,0.6425,0.3855,1.482,0.616,0.444,0.41,0.1435,-0.036
0.531,-0.0405,-0.5715,-0.2445,0.5515,-0.3065,1.5125,0.639,0.383,1.4805,0.616,0.444,0.411,0.1465,-0.0355
0.5315,-0.041,-0.573,-0.245,0.552,-0.3075,1.514,0.641,0.383,1.482,0.617,0.4445,0.413,0.1385,-0.0355
0.5345,-0.038,-0.5725,-0.248,0.553,-0.3055,1.521,0.6455,0.386,1.485,0.619,0.4465,0.4125,0.1355,-0.0345
0.5355,-0.035,-0.5705,-0.25,0.553,-0.303,1.5225,0.6455,0.389,1.4895,0.623,0.4505,0.413,0.1365,-0.0355
0.5345,-0.0395,-0.574,-0.247,0.5545,-0.307,1.507,0.642,0.3915,1.4915,0.6235,0.4505,0.4155,0.136,-0.0375
0.534,-0.0395,-0.573,-0.247,0.5535,-0.3065,1.51,0.643,0.385,1.4885,0.622,0.448,0.414,0.1375,-0.0355
0.537,-0.032,-0.569,-0.252,0.553,-0.3005,1.5205,0.6475,0.3805,1.488,0.6215,0.449,0.4095,0.144,-0.0335
0.538,-0.034,-0.572,-0.2515,0.555,-0.3035,1.5125,0.643,0.388,1.491,0.622,0.449,0.41,0.1385,-0.0365
0.544,-0.032,-0.576,-0.256,0.56,-0.3045,1.514,0.6455,0.3935,1.4935,0.624,0.4515,0.41,0.136,-0.037
0.548,-0.029,-0.577,-0.259,0.5625,-0.3035,1.5195,0.649,0.3925,1.497,0.6265,0.455,0.413,0.1325,-0.042
0.543,-0.0355,-0.5785,-0.254,0.561,-0.307,1.5205,0.6465,0.39,1.495,0.625,0.454,0.4165,0.131,-0.0395
0.54,-0.04,-0.58,-0.25,0.56,-0.31,1.523,0.6525,0.383,1.4915,0.623,0.455,0.4135,0.14,-0.034
0.5385,-0.0405,-0.5785,-0.249,0.5585,-0.31,1.5245,0.6505,0.3785,1.487,0.6205,0.451,0.41,0.1365,-0.034
0.537,-0.041,-0.578,-0.248,0.5575,-0.3095,1.521,0.6435,0.384,1.481,0.6145,0.4445,0.4055,0.1405,-0.0335
0.536,-0.037,-0.573,-0.249,0.5545,-0.305,1.5185,0.637,0.3905,1.4855,0.616,0.445,0.406,0.15,-0.031
0.542,-0.0305,-0.5725,-0.2555,0.557,-0.3015,1.521,0.643,0.3905,1.488,0.6195,0.4485,0.4095,0.1445,-0.0335
0.5445,-0.03,-0.575,-0.257,0.5595,-0.3025,1.527,0.6535,0.388,1.485,0.618,0.45,0.4105,0.142,-0.037
0.543,-0.0285,-0.5715,-0.257,0.557,-0.3,1.5285,0.652,0.3885,1.486,0.619,0.4505,0.4115,0.1455,-0.0325
0.545,-0.026,-0.5715,-0.2595,0.5585,-0.299,1.531,0.651,0.3865,1.485,0.6165,0.448,0.41,0.1375,-0.037
0.5415,-0.031,-0.5725,-0.255,0.557,-0.302,1.5385,0.652,0.386,1.483,0.613,0.4455,0.4075,0.133,-0.0375
0.5325,-0.0385,-0.5715,-0.2465,0.552,-0.3055,1.536,0.651,0.3855,1.4825,0.614,0.4455,0.407,0.1355,-0.032
0.5315,-0.041,-0.5725,-0.245,0.552,-0.3075,1.5345,0.6495,0.388,1.4845,0.617,0.445,0.407,0.1325,-0.0325
0.5315,-0.0455,-0.577,-0.2425,0.554,-0.3115,1.5385,0.651,0.39,1.485,0.6175,0.4455,0.4085,0.13,-0.029
0.5305,-0.0515,-0.582,-0.2395,0.5565,-0.317,1.5395,0.6555,0.3865,1.478,0.614,0.4435,0.4055,0.1285,-0.0335
0.5345,-0.0475,-0.5825,-0.243,0.5585,-0.315,1.5365,0.651,0.3925,1.4795,0.614,0.4425,0.4045,0.1315,-0.0305
0.536,-0.049,-0.585,-0.243,0.5605,-0.3175,1.542,0.6525,0.3835,1.4765,0.6125,0.442,0.4055,0.13,-0.0215
0.5335,-0.0555,-0.589,-0.2385,0.5615,-0.3225,1.5445,0.6515,0.3805,1.471,0.609,0.44,0.4025,0.12,-0.033
0.5305,-0.058,-0.589,-0.236,0.5595,-0.3235,1.5285,0.6525,0.4,1.4825,0.614,0.441,0.4025,0.1165,-0.0415
0.529,-0.0615,-0.5905,-0.2335,0.5595,-0.326,1.533,0.6575,0.39,1.4785,0.6125,0.4385,0.3995,0.1145,-0.038
0.5295,-0.061,-0.5905,-0.234,0.56,-0.3265,1.541,0.6505,0.3785,1.4715,0.6075,0.435,0.398,0.116,-0.037
0.5255,-0.061,-0.5865,-0.232,0.556,-0.324,1.539,0.6545,0.3865,1.476,0.61,0.4365,0.3975,0.1245,-0.0385
0.528,-0.06,-0.5885,-0.234,0.558,-0.3245,1.542,0.6575,0.387,1.475,0.61,0.439,0.4,0.123,-0.035
0.532,-0.0645,-0.5965,-0.2335,0.564,-0.3305,1.5365,0.6575,0.3845,1.4725,0.608,0.438,0.4025,0.117,-0.0365
0.526,-0.0725,-0.5985,-0.2265,0.562,-0.3355,1.5315,0.655,0.381,1.4705,0.604,0.434,0.3995,0.1065,-0.043
0.5255,-0.075,-0.601,-0.225,0.563,-0.338,1.534,0.653,0.382,1.4715,0.6055,0.4375,0.398,0.107,-0.045
0.528,-0.0715,-0.5995,-0.228,0.5635,-0.3355,1.537,0.6515,0.38,1.4695,0.607,0.4375,0.3955,0.1135,-0.042
0.5275,-0.069,-0.5965,-0.229,0.562,-0.333,1.5395,0.6545,0.3795,1.4685,0.6045,0.4335,0.3965,0.118,-0.0315
0.5285,-0.07,-0.5985,-0.229,0.5635,-0.3345,1.5365,0.6515,0.3805,1.467,0.605,0.4325,0.397,0.1195,-0.022
0.532,-0.059,-0.591,-0.236,0.5615,-0.325,1.5335,0.6455,0.378,1.4655,0.603,0.43,0.3945,0.1245,-0.029
0.536,-0.049,-0.585,-0.243,0.5605,-0.317,1.537,0.653,0.382,1.468,0.606,0.431,0.395,0.133,-0.0355
0.5405,-0.0475,-0.588,-0.2465,0.5645,-0.318,1.5365,0.651,0.3775,1.466,0.604,0.43,0.3995,0.1305,-0.03
0.5425,-0.0425,-0.585,-0.2495,0.564,-0.314,1.5365,0.652,0.376,1.466,0.6025,0.43,0.4035,0.1335,-0.03
0.539,-0.039,-0.578,-0.2495,0.5585,-0.3085,1.5395,0.657,0.378,1.467,0.606,0.4325,0.4045,0.1405,-0.035
0.5315,-0.043,-0.5745,-0.244,0.553,-0.309,1.5405,0.6545,0.3765,1.468,0.6055,0.4315,0.402,0.135,-0.0385
0.527,-0.049,-0.576,-0.2385,0.5515,-0.313,1.539,0.653,0.3785,1.468,0.604,0.4295,0.4,0.1265,-0.0375
0.5245,-0.0535,-0.5785,-0.235,0.5515,-0.3165,1.5385,0.6505,0.376,1.4645,0.6015,0.427,0.398,0.126,-0.0355
0.5275,-0.056,-0.583,-0.2355,0.555,-0.3195,1.539,0.651,0.3755,1.465,0.6035,0.4295,0.399,0.1265,-0.033
0.5335,-0.053,-0.5865,-0.24,0.5595,-0.32,1.541,0.651,0.3775,1.467,0.606,0.433,0.4005,0.126,-0.0315
0.535,-0.0515,-0.5865,-0.2415,0.5605,-0.3195,1.54,0.6505,0.379,1.469,0.606,0.437,0.4045,0.125,-0.0275
0.5315,-0.0555,-0.587,-0.238,0.5595,-0.3215,1.5375,0.649,0.378,1.4685,0.605,0.4385,0.406,0.1235,-0.0255
0.525,-0.0585,-0.5835,-0.233,0.5545,-0.3215,1.5365,0.645,0.3785,1.4685,0.604,0.435,0.4,0.1305,-0.0275
0.5295,-0.055,-0.5845,-0.237,0.557,-0.32,1.5345,0.6485,0.3815,1.4715,0.6065,0.438,0.403,0.1275,-0.0335
0.5335,-0.055,-0.5885,-0.239,0.561,-0.322,1.544,0.656,0.378,1.471,0.6075,0.4415,0.407,0.119,-0.035
0.5395,-0.051,-0.5905,-0.244,0.565,-0.321,1.5475,0.6585,0.3795,1.474,0.609,0.443,0.406,0.12,-0.033
0.5395,-0.054,-0.594,-0.2425,0.5665,-0.324,1.5445,0.6545,0.3755,1.47,0.6065,0.442,0.405,0.1195,-0.0325
0.531,-0.062,-0.593,-0.2345,0.562,-0.3275,1.543,0.647,0.371,1.465,0.602,0.439,0.408,0.124,-0.0265
0.5335,-0.059,-0.5925,-0.237,0.563,-0.326,1.543,0.6485,0.3725,1.468,0.6025,0.4385,0.414,0.1245,-0.0235
0.538,-0.054,-0.5915,-0.2415,0.5645,-0.323,1.5515,0.658,0.3805,1.473,0.6075,0.4415,0.4175,0.1305,-0.0265
0.5375,-0.054,-0.592,-0.2415,0.5645,-0.323,1.549,0.659,0.384,1.4755,0.6085,0.441,0.4155,0.135,-0.029
0.532,-0.061,-0.593,-0.235,0.5625,-0.3275,1.5495,0.651,0.3735,1.4685,0.6035,0.4375,0.411,0.124,-0.026
0.5305,-0.0615,-0.5915,-0.2345,0.561,-0.3265,1.557,0.654,0.3775,1.469,0.6065,0.439,0.408,0.1185,-0.028
0.526,-0.061,-0.587,-0.232,0.5565,-0.3245,1.558,0.6625,0.3835,1.475,0.6095,0.439,0.405,0.1185,-0.036
0.526,-0.0625,-0.5885,-0.2315,0.5575,-0.3255,1.5535,0.6555,0.38,1.474,0.6085,0.4385,0.4055,0.1175,-0.034
0.538,-0.055,-0.593,-0.241,0.5655,-0.3245,1.549,0.6545,0.3775,1.471,0.608,0.4385,0.402,0.118,-0.0325
0.5405,-0.0495,-0.59,-0.2455,0.5655,-0.32,1.547,0.653,0.379,1.471,0.609,0.4415,0.3995,0.12,-0.034
0.5375,-0.0525,-0.59,-0.242,0.5635,-0.3215,1.545,0.65,0.377,1.468,0.6065,0.441,0.4,0.1195,-0.0325
0.5305,-0.059,-0.5895,-0.2355,0.56,-0.3245,1.5465,0.654,0.3695,1.4625,0.601,0.4365,0.395,0.116,-0.033
0.5265,-0.0615,-0.588,-0.2325,0.5575,-0.325,1.5425,0.65,0.3685,1.461,0.6005,0.436,0.3905,0.1175,-0.032
0.5235,-0.065,-0.5885,-0.229,0.556,-0.327,1.5325,0.642,0.3665,1.458,0.5965,0.432,0.388,0.1185,-0.026
0.5205,-0.0665,-0.587,-0.2265,0.5535,-0.327,1.532,0.6405,0.3625,1.454,0.5925,0.4285,0.3855,0.1225,-0.021
0.5215,-0.061,-0.5825,-0.23,0.552,-0.322,1.533,0.6435,0.3625,1.4535,0.5925,0.4295,0.3845,0.1295,-0.0245
0.5225,-0.061,-0.5835,-0.23,0.5525,-0.3225,1.5275,0.636,0.362,1.4525,0.591,0.4285,0.3845,0.127,-0.0245
0.5235,-0.0595,-0.5825,-0.2315,0.553,-0.3215,1.528,0.64,0.3635,1.4545,0.593,0.4295,0.383,0.1325,-0.023
0.5275,-0.052,-0.5795,-0.2375,0.5535,-0.316,1.533,0.648,0.363,1.455,0.5955,0.4315,0.385,0.1375,-0.0245
0.5285,-0.052,-0.5805,-0.238,0.5545,-0.3165,1.53,0.639,0.3615,1.454,0.595,0.4305,0.385,0.133,-0.023
0.5255,-0.0535,-0.579,-0.236,0.5525,-0.3165,1.5345,0.637,0.352,1.4485,0.5905,0.428,0.38,0.1355,-0.0155
0.531,-0.048,-0.5795,-0.2415,0.5555,-0.314,1.5385,0.642,0.3525,1.4505,0.5925,0.4295,0.383,0.1405,-0.0155
0.5255,-0.0455,-0.571,-0.2395,0.548,-0.3085,1.5305,0.6445,0.3655,1.458,0.598,0.4315,0.387,0.1455,-0.027
0.522,-0.0435,-0.565,-0.239,0.5435,-0.3045,1.528,0.6415,0.366,1.4565,0.596,0.4295,0.385,0.14,-0.0275
0.5295,-0.041,-0.5705,-0.244,0.55,-0.306,1.53,0.6375,0.3675,1.4605,0.5995,0.4325,0.3855,0.1345,-0.026
0.53,-0.044,-0.574,-0.2425,0.552,-0.3095,1.53,0.646,0.371,1.4635,0.603,0.435,0.3865,0.1395,-0.026
0.535,-0.043,-0.5785,-0.246,0.557,-0.311,1.525,0.644,0.3675,1.4635,0.6005,0.435,0.3865,0.139,-0.023
0.5315,-0.045,-0.577,-0.243,0.5545,-0.3115,1.526,0.6395,0.367,1.4645,0.5995,0.4345,0.3815,0.138,-0.0225
0.53,-0.0495,-0.5795,-0.24,0.555,-0.315,1.526,0.6425,0.3725,1.466,0.6,0.4345,0.3795,0.1325,-0.0225
0.5345,-0.051,-0.5855,-0.2415,0.56,-0.3185,1.5205,0.637,0.3705,1.4655,0.599,0.434,0.386,0.128,-0.019
0.5305,-0.0545,-0.585,-0.2375,0.5575,-0.32,1.517,0.6335,0.3685,1.4605,0.597,0.431,0.384,0.1275,-0.019
0.531,-0.057,-0.588,-0.237,0.5595,-0.3225,1.5135,0.638,0.369,1.4575,0.594,0.4285,0.3795,0.1305,-0.02
0.5325,-0.0585,-0.591,-0.2365,0.562,-0.325,1.5145,0.6335,0.363,1.4525,0.59,0.426,0.378,0.13,-0.014
0.531,-0.061,-0.592,-0.235,0.5615,-0.3265,1.515,0.6325,0.3605,1.4505,0.5885,0.4255,0.3755,0.1245,-0.013
0.534,-0.0585,-0.592,-0.2375,0.563,-0.3255,1.506,0.629,0.3585,1.448,0.5865,0.4235,0.3785,0.1275,-0.014
0.5305,-0.057,-0.5875,-0.2365,0.559,-0.3225,1.5025,0.618,0.347,1.4415,0.58,0.419,0.3745,0.127,-0.0085
0.5255,-0.057,-0.5825,-0.234,0.5545,-0.32,1.4975,0.6205,0.3435,1.4405,0.5785,0.4175,0.37,0.1245,-0.005
0.5315,-0.0505,-0.582,-0.24,0.5565,-0.3165,1.491,0.615,0.346,1.4435,0.5815,0.419,0.373,0.132,-0.0005
0.5295,-0.0505,-0.58,-0.239,0.555,-0.3155,1.4865,0.6135,0.342,1.4385,0.5785,0.4195,0.371,0.134,0.0035
0.5255,-0.0535,-0.579,-0.236,0.5525,-0.3165,1.4695,0.601,0.337,1.436,0.577,0.4175,0.373,0.1275,0.0065
0.528,-0.051,-0.579,-0.238,0.5535,-0.3155,1.4605,0.5925,0.337,1.439,0.5775,0.419,0.3795,0.1295,0.012
0.522,-0.059,-0.5805,-0.231,0.551,-0.32,1.461,0.591,0.3255,1.427,0.5685,0.412,0.375,0.125,0.013
0.513,-0.0685,-0.582,-0.222,0.5475,-0.3255,1.462,0.588,0.3185,1.4205,0.5635,0.407,0.372,0.117,0.0075
0.511,-0.072,-0.583,-0.2195,0.547,-0.3275,1.4645,0.588,0.3195,1.42,0.564,0.4085,0.373,0.119,0.0095
0.516,-0.071,-0.587,-0.2225,0.5515,-0.329,1.465,0.578,0.315,1.419,0.564,0.408,0.372,0.1105,0.0155
0.522,-0.0645,-0.5865,-0.2285,0.5545,-0.326,1.4665,0.593,0.3275,1.4285,0.572,0.4145,0.378,0.115,0.0115
0.5285,-0.0635,-0.592,-0.232,0.5605,-0.328,1.468,0.599,0.3275,1.4255,0.571,0.4155,0.38,0.1185,0.016
0.5295,-0.0685,-0.598,-0.2305,0.564,-0.3335,1.4685,0.597,0.324,1.424,0.566,0.4135,0.3765,0.1085,0.011
0.5185,-0.075,-0.594,-0.2215,0.5565,-0.335,1.473,0.5945,0.321,1.4235,0.5655,0.4125,0.3735,0.11,0.0085
0.519,-0.0715,-0.59,-0.2235,0.5545,-0.331,1.473,0.591,0.3215,1.426,0.568,0.414,0.376,0.1175,0.0145
0.5235,-0.071,-0.594,-0.226,0.559,-0.333,1.473,0.5985,0.323,1.427,0.5705,0.419,0.38,0.114,0.0105
0.526,-0.076,-0.602,-0.2245,0.564,-0.3395,1.4735,0.5965,0.317,1.422,0.569,0.42,0.38,0.1085,0.0195
0.53,-0.071,-0.6005,-0.229,0.565,-0.336,1.472,0.596,0.325,1.4265,0.5685,0.4185,0.38,0.109,0.014
0.531,-0.0675,-0.5985,-0.2315,0.565,-0.333,1.469,0.5935,0.324,1.4275,0.5695,0.416,0.3775,0.1065,0.007
0.5375,-0.0695,-0.6065,-0.234,0.572,-0.3385,1.4695,0.594,0.322,1.427,0.5725,0.4195,0.38,0.1025,0.013
0.5315,-0.0745,-0.606,-0.2285,0.5685,-0.3405,1.472,0.5935,0.3215,1.425,0.574,0.422,0.3835,0.105,0.012
0.525,-0.08,-0.6055,-0.222,0.5655,-0.343,1.47,0.593,0.3215,1.425,0.576,0.422,0.383,0.1105,0.0165
0.522,-0.086,-0.6085,-0.2175,0.565,-0.348,1.4735,0.599,0.325,1.428,0.578,0.425,0.382,0.107,0.013
0.5205,-0.079,-0.5995,-0.22,0.56,-0.3395,1.4725,0.594,0.3245,1.4275,0.5775,0.424,0.379,0.1115,0.011
0.528,-0.068,-0.596,-0.2295,0.562,-0.3325,1.474,0.5985,0.3275,1.4295,0.58,0.423,0.381,0.116,0.0095
0.53,-0.0695,-0.5995,-0.23,0.5645,-0.335,1.474,0.597,0.33,1.432,0.581,0.422,0.382,0.1125,0.0065
0.528,-0.0765,-0.6045,-0.225,0.566,-0.341,1.4665,0.5905,0.326,1.431,0.581,0.424,0.381,0.1125,0.0115
0.5305,-0.074,-0.6045,-0.228,0.5675,-0.3395,1.4695,0.5945,0.325,1.433,0.584,0.427,0.384,0.1185,0.013
0.5325,-0.0705,-0.603,-0.231,0.568,-0.3365,1.4755,0.5935,0.3275,1.436,0.5885,0.4285,0.386,0.122,0.016
0.5285,-0.0755,-0.6045,-0.226,0.5665,-0.3405,1.4735,0.6005,0.332,1.4375,0.5895,0.428,0.386,0.116,0.01
0.5295,-0.074,-0.6035,-0.2275,0.5665,-0.339,1.4755,0.601,0.3325,1.44,0.5895,0.428,0.388,0.118,0.011
0.53,-0.074,-0.604,-0.2275,0.567,-0.339,1.4795,0.5975,0.3305,1.44,0.5895,0.429,0.388,0.1215,0.019
0.529,-0.0745,-0.6035,-0.227,0.5665,-0.339,1.476,0.5945,0.33,1.4385,0.589,0.4295,0.3875,0.1215,0.018
0.5295,-0.072,-0.602,-0.2285,0.5655,-0.337,1.4745,0.5965,0.3315,1.438,0.589,0.43,0.3885,0.1225,0.0165
0.53,-0.07,-0.6,-0.23,0.565,-0.335,1.478,0.5975,0.3325,1.439,0.589,0.4315,0.3885,0.1225,0.016
0.527,-0.0685,-0.5955,-0.229,0.561,-0.332,1.4765,0.5945,0.334,1.4415,0.59,0.4325,0.3885,0.124,0.0175
0.5205,-0.0705,-0.591,-0.2245,0.5555,-0.331,1.476,0.603,0.336,1.4425,0.589,0.4305,0.387,0.122,0.0095
0.518,-0.072,-0.59,-0.2225,0.554,-0.3315,1.4795,0.5985,0.3215,1.4365,0.584,0.4245,0.3845,0.119,0.01
0.522,-0.069,-0.591,-0.226,0.5565,-0.3305,1.477,0.596,0.323,1.4365,0.5845,0.4235,0.3855,0.1165,0.0125
0.5315,-0.058,-0.5895,-0.237,0.5605,-0.324,1.48,0.602,0.3385,1.4445,0.5895,0.428,0.3885,0.122,0.0095
0.531,-0.053,-0.584,-0.239,0.5575,-0.319,1.478,0.6005,0.338,1.4425,0.589,0.427,0.389,0.126,0.0085
0.5265,-0.055,-0.581,-0.2355,0.554,-0.3185,1.4775,0.5995,0.337,1.438,0.5855,0.423,0.387,0.1235,0.0025
0.525,-0.0555,-0.5805,-0.2345,0.5525,-0.3185,1.481,0.5955,0.3325,1.4345,0.5795,0.42,0.3835,0.13,0.006
0.525,-0.0545,-0.579,-0.235,0.552,-0.317,1.483,0.5975,0.33,1.4315,0.575,0.416,0.379,0.1355,0.001
0.5245,-0.053,-0.5775,-0.2355,0.551,-0.3155,1.486,0.5985,0.3335,1.4305,0.5755,0.415,0.3775,0.134,0.0005
0.527,-0.058,-0.585,-0.234,0.556,-0.322,1.482,0.6,0.3345,1.429,0.5765,0.4165,0.384,0.1285,0.0105
0.5255,-0.0625,-0.588,-0.2315,0.557,-0.3255,1.4825,0.605,0.334,1.4275,0.574,0.416,0.386,0.1175,0.005
0.5215,-0.0595,-0.581,-0.231,0.5515,-0.3205,1.4805,0.599,0.334,1.428,0.575,0.4175,0.383,0.123,0.0035
0.5345,-0.049,-0.5835,-0.2425,0.559,-0.3165,1.4815,0.601,0.3345,1.429,0.5765,0.4205,0.3825,0.134,0.005
0.537,-0.047,-0.584,-0.2445,0.5605,-0.316,1.4895,0.6085,0.3335,1.429,0.575,0.42,0.382,0.1305,0.0045
0.5265,-0.052,-0.5785,-0.237,0.5525,-0.3155,1.489,0.6065,0.3345,1.4305,0.574,0.419,0.38,0.1245,0.0015
0.521,-0.0565,-0.577,-0.232,0.549,-0.317,1.483,0.6,0.3325,1.4275,0.5715,0.4155,0.378,0.13,0.002
0.519,-0.0605,-0.5795,-0.229,0.549,-0.32,1.48,0.597,0.329,1.4245,0.572,0.4145,0.378,0.1275,0.0045
0.5255,-0.0595,-0.585,-0.233,0.5555,-0.3225,1.4775,0.5935,0.332,1.428,0.5755,0.418,0.383,0.1195,0.009
0.523,-0.064,-0.5875,-0.2295,0.555,-0.326,1.473,0.5935,0.3325,1.43,0.5785,0.422,0.385,0.12,0.007
0.516,-0.077,-0.5935,-0.219,0.5545,-0.3355,1.4785,0.6,0.3275,1.4275,0.5765,0.4205,0.3805,0.11,0.0055
0.5195,-0.086,-0.606,-0.216,0.5625,-0.3465,1.4805,0.5975,0.3235,1.422,0.5705,0.4135,0.379,0.1,0.0175
0.5195,-0.0865,-0.6065,-0.216,0.563,-0.347,1.481,0.5955,0.3235,1.423,0.5705,0.413,0.3775,0.1025,0.007
0.521,-0.0835,-0.605,-0.218,0.563,-0.345,1.4855,0.596,0.324,1.423,0.574,0.4185,0.377,0.105,0.0015
0.5255,-0.0795,-0.606,-0.2225,0.566,-0.3435,1.4795,0.595,0.3205,1.418,0.57,0.418,0.3775,0.107,0.0125
0.5245,-0.0775,-0.6025,-0.223,0.5635,-0.3405,1.4775,0.5955,0.3255,1.4205,0.5695,0.4175,0.379,0.1105,0.0175
0.523,-0.078,-0.602,-0.222,0.5625,-0.3405,1.48,0.598,0.326,1.4195,0.571,0.4165,0.38,0.108,0.016
0.5225,-0.082,-0.605,-0.22,0.5635,-0.344,1.478,0.599,0.3215,1.4135,0.565,0.4115,0.3725,0.101,0.0135
0.524,-0.0845,-0.6095,-0.219,0.5665,-0.3475,1.482,0.597,0.3255,1.4165,0.565,0.4135,0.372,0.102,0.013
0.529,-0.0785,-0.608,-0.2245,0.5685,-0.344,1.4875,0.595,0.3255,1.4185,0.566,0.415,0.374,0.106,0.007
0.525,-0.0785,-0.604,-0.2225,0.5645,-0.342,1.4875,0.597,0.3255,1.416,0.562,0.4105,0.3705,0.105,0.009
0.5205,-0.0805,-0.6015,-0.2195,0.561,-0.3415,1.4915,0.6025,0.327,1.4165,0.5605,0.4075,0.37,0.112,0.0125
0.52,-0.0785,-0.599,-0.2205,0.5595,-0.339,1.4925,0.605,0.325,1.4165,0.5605,0.4065,0.37,0.111,0.01
0.5205,-0.0815,-0.6025,-0.219,0.5615,-0.3425,1.488,0.6015,0.3235,1.417,0.561,0.4075,0.372,0.104,0.0075
0.52,-0.085,-0.6055,-0.217,0.563,-0.346,1.491,0.6005,0.321,1.417,0.562,0.4085,0.3725,0.1025,0.0045
0.5215,-0.0825,-0.6045,-0.219,0.563,-0.344,1.489,0.5955,0.322,1.419,0.566,0.4125,0.3745,0.1015,0.0065
0.529,-0.0765,-0.606,-0.2255,0.5675,-0.3415,1.489,0.5965,0.3275,1.426,0.573,0.419,0.3815,0.1045,0.0095
0.528,-0.0795,-0.608,-0.2235,0.568,-0.3445,1.492,0.6,0.3285,1.429,0.5755,0.42,0.3875,0.101,0.01
0.528,-0.0805,-0.609,-0.2235,0.5685,-0.345,1.49,0.596,0.323,1.427,0.5735,0.4195,0.392,0.099,0.0095
0.525,-0.075,-0.6005,-0.2245,0.563,-0.3385,1.4935,0.5995,0.3255,1.4245,0.572,0.417,0.389,0.1045,0.0
0.51,-0.0875,-0.598,-0.2105,0.554,-0.3435,1.4905,0.592,0.323,1.4185,0.5675,0.4115,0.383,0.107,0.006
0.511,-0.0905,-0.6025,-0.21,0.557,-0.347,1.487,0.5915,0.325,1.4205,0.568,0.4115,0.386,0.1075,0.011
0.524,-0.0745,-0.599,-0.2245,0.5615,-0.3375,1.4945,0.6035,0.332,1.4275,0.5745,0.4155,0.386,0.108,0.0015
0.528,-0.0745,-0.603,-0.2265,0.5655,-0.339,1.498,0.6075,0.327,1.4235,0.5715,0.416,0.3825,0.1015,0.0005
0.5235,-0.0815,-0.6055,-0.2205,0.5645,-0.344,1.4985,0.6045,0.3245,1.422,0.569,0.4145,0.3795,0.1035,0.0015
0.519,-0.083,-0.6025,-0.2175,0.561,-0.3435,1.501,0.6015,0.327,1.425,0.5695,0.4145,0.3775,0.111,0.0065
0.5205,-0.0775,-0.5985,-0.221,0.5595,-0.3385,1.5035,0.6105,0.335,1.426,0.5695,0.416,0.372,0.1105,-0.0035
0.523,-0.076,-0.5995,-0.223,0.561,-0.338,1.5045,0.61,0.3335,1.4255,0.569,0.418,0.369,0.108,-0.009
0.5265,-0.08,-0.607,-0.223,0.567,-0.344,1.502,0.6055,0.3305,1.4245,0.5705,0.418,0.372,0.1045,-0.002
0.5255,-0.081,-0.607,-0.2215,0.566,-0.3445,1.5055,0.6055,0.333,1.425,0.5705,0.4175,0.369,0.103,-0.0045
0.5245,-0.08,-0.605,-0.2215,0.565,-0.343,1.5065,0.6085,0.338,1.4285,0.5735,0.42,0.3665,0.106,-0.009
0.525,-0.079,-0.6045,-0.2225,0.565,-0.342,1.504,0.61,0.3405,1.4285,0.5735,0.4195,0.3665,0.1065,-0.009
0.5245,-0.085,-0.61,-0.2195,0.5675,-0.3485,1.5065,0.606,0.3275,1.421,0.568,0.416,0.368,0.097,-0.0015
0.523,-0.0865,-0.61,-0.218,0.5665,-0.349,1.5005,0.6035,0.328,1.4205,0.569,0.414,0.369,0.0935,-0.0035
0.5205,-0.0785,-0.599,-0.2205,0.56,-0.3395,1.5,0.607,0.334,1.4225,0.568,0.413,0.365,0.103,-0.009
0.5205,-0.0775,-0.5985,-0.221,0.5595,-0.3385,1.504,0.6085,0.331,1.4215,0.568,0.4125,0.3645,0.106,-0.009
0.5225,-0.081,-0.6045,-0.22,0.5635,-0.3435,1.4955,0.6005,0.33,1.4225,0.5695,0.413,0.3715,0.1035,0.0005
0.523,-0.084,-0.6075,-0.219,0.5655,-0.3465,1.4945,0.6005,0.3285,1.4235,0.57,0.414,0.3755,0.1045,0.0065
0.52,-0.087,-0.6075,-0.216,0.564,-0.348,1.498,0.6045,0.3285,1.424,0.5715,0.414,0.3755,0.1065,0.0025
0.522,-0.0805,-0.6035,-0.22,0.563,-0.3425,1.4955,0.606,0.3295,1.426,0.5715,0.4155,0.3765,0.11,-0.0015
0.532,-0.0705,-0.6025,-0.2305,0.5675,-0.337,1.503,0.61,0.334,1.4335,0.5775,0.4205,0.381,0.1135,-0.006
0.5375,-0.069,-0.6065,-0.234,0.572,-0.3375,1.5055,0.6085,0.3345,1.433,0.578,0.4225,0.3895,0.1115,-0.0025
0.537,-0.0685,-0.6055,-0.234,0.5715,-0.3375,1.4995,0.6085,0.332,1.4335,0.578,0.421,0.394,0.1085,-0.005
0.529,-0.0735,-0.603,-0.2275,0.566,-0.3385,1.504,0.614,0.329,1.431,0.5765,0.418,0.3885,0.108,-0.009
0.515,-0.081,-0.5965,-0.2165,0.556,-0.3395,1.506,0.6125,0.3305,1.4255,0.571,0.4145,0.3825,0.112,-0.003
0.5175,-0.0775,-0.5955,-0.2195,0.5565,-0.337,1.5025,0.6085,0.337,1.431,0.574,0.4155,0.3835,0.1165,-0.006
0.5255,-0.074,-0.5995,-0.2255,0.5625,-0.337,1.5075,0.6115,0.3355,1.428,0.5745,0.4175,0.386,0.1095,-0.0125
0.528,-0.076,-0.604,-0.2255,0.566,-0.3405,1.51,0.612,0.3365,1.4295,0.5745,0.42,0.39,0.103,-0.005
0.5285,-0.079,-0.6085,-0.2245,0.5685,-0.344,1.5085,0.6115,0.3345,1.4295,0.572,0.417,0.387,0.105,0.0015
0.529,-0.077,-0.606,-0.2255,0.5675,-0.342,1.5125,0.619,0.3355,1.4275,0.5705,0.4145,0.3805,0.108,-0.005
0.53,-0.075,-0.6055,-0.227,0.5675,-0.3405,1.513,0.618,0.3405,1.4285,0.5715,0.415,0.3775,0.105,-0.0085
0.5265,-0.0765,-0.6035,-0.225,0.565,-0.34,1.514,0.616,0.3375,1.4255,0.569,0.412,0.373,0.1015,-0.01
0.529,-0.071,-0.6,-0.2285,0.5645,-0.336,1.5155,0.619,0.3405,1.427,0.5705,0.4145,0.3735,0.105,-0.0145
0.5245,-0.077,-0.602,-0.2235,0.5635,-0.34,1.519,0.6185,0.336,1.4235,0.5685,0.4125,0.3715,0.103,-0.0125
0.513,-0.0875,-0.601,-0.2125,0.557,-0.345,1.522,0.622,0.3355,1.421,0.5645,0.409,0.3665,0.1025,-0.0105
0.5105,-0.0895,-0.6,-0.21,0.5555,-0.345,1.518,0.616,0.342,1.424,0.567,0.4095,0.3665,0.101,-0.014
0.5185,-0.08,-0.599,-0.219,0.5585,-0.34,1.5215,0.621,0.3425,1.4275,0.571,0.4115,0.3685,0.1025,-0.0165
0.524,-0.073,-0.5965,-0.225,0.56,-0.335,1.521,0.62,0.3425,1.43,0.5715,0.4115,0.369,0.1095,-0.0145
0.5235,-0.0785,-0.6025,-0.222,0.563,-0.341,1.518,0.6105,0.3415,1.431,0.5725,0.4105,0.3725,0.1035,-0.015
0.5235,-0.085,-0.609,-0.219,0.566,-0.3475,1.5205,0.62,0.345,1.435,0.5755,0.414,0.3795,0.0995,-0.018
0.522,-0.0895,-0.612,-0.216,0.567,-0.351,1.521,0.6255,0.349,1.4365,0.576,0.413,0.382,0.0985,-0.0215
0.5325,-0.083,-0.616,-0.224,0.5745,-0.35,1.525,0.626,0.352,1.439,0.5785,0.4145,0.3835,0.0995,-0.0165
0.536,-0.0775,-0.6135,-0.2285,0.575,-0.346,1.527,0.6265,0.3505,1.44,0.58,0.4165,0.385,0.1055,-0.017
0.5285,-0.077,-0.606,-0.225,0.567,-0.342,1.528,0.6275,0.348,1.4375,0.5785,0.4145,0.3825,0.103,-0.0255
0.5265,-0.078,-0.605,-0.224,0.566,-0.342,1.5275,0.6235,0.3435,1.4355,0.5775,0.415,0.384,0.106,-0.021
0.5325,-0.077,-0.61,-0.227,0.571,-0.3445,1.5175,0.619,0.3405,1.435,0.5775,0.418,0.3895,0.109,-0.0135
0.5295,-0.079,-0.609,-0.2245,0.5695,-0.345,1.5105,0.613,0.338,1.434,0.5765,0.4185,0.3905,0.1005,-0.0115
0.5135,-0.0855,-0.5995,-0.2135,0.5565,-0.343,1.514,0.6125,0.336,1.429,0.5725,0.412,0.384,0.0965,-0.015
0.514,-0.083,-0.598,-0.215,0.556,-0.341,1.516,0.6175,0.339,1.43,0.5735,0.413,0.383,0.093,-0.0185
0.5195,-0.0835,-0.603,-0.2175,0.561,-0.3435,1.5195,0.6185,0.3405,1.433,0.575,0.417,0.383,0.095,-0.0175
0.524,-0.082,-0.6065,-0.2205,0.5655,-0.345,1.523,0.6185,0.3405,1.431,0.5745,0.4165,0.38,0.103,-0.014
0.528,-0.08,-0.609,-0.2235,0.5685,-0.345,1.521,0.614,0.3405,1.434,0.5775,0.4185,0.3825,0.1005,-0.0155
0.5315,-0.079,-0.611,-0.2255,0.571,-0.3455,1.521,0.6225,0.343,1.4355,0.58,0.42,0.3835,0.1025,-0.0145
0.537,-0.074,-0.611,-0.231,0.574,-0.343,1.526,0.6255,0.3445,1.437,0.5825,0.4235,0.3835,0.116,-0.0055
0.5325,-0.073,-0.6055,-0.2295,0.569,-0.3395,1.523,0.6145,0.349,1.438,0.5825,0.4235,0.379,0.1165,-0.014
0.528,-0.0715,-0.5995,-0.228,0.5635,-0.3355,1.5265,0.6225,0.3435,1.433,0.577,0.4185,0.371,0.109,-0.02
0.5155,-0.076,-0.5915,-0.2195,0.5535,-0.334,1.531,0.6195,0.334,1.429,0.5725,0.413,0.36,0.1185,-0.016
0.518,-0.0755,-0.5945,-0.221,0.556,-0.3355,1.5245,0.6125,0.3395,1.433,0.576,0.4145,0.3625,0.1215,-0.0155
0.527,-0.0705,-0.598,-0.228,0.5625,-0.3345,1.5255,0.6185,0.343,1.4355,0.579,0.417,0.3735,0.1155,-0.0155
0.52,-0.0725,-0.592,-0.2235,0.556,-0.3325,1.527,0.6175,0.3425,1.4365,0.5785,0.416,0.372,0.1115,-0.021
0.518,-0.0745,-0.592,-0.2215,0.555,-0.3335,1.5255,0.6155,0.339,1.434,0.576,0.416,0.3725,0.1115,-0.019
0.5165,-0.075,-0.5915,-0.2205,0.554,-0.3335,1.526,0.612,0.3365,1.43,0.5715,0.4135,0.3705,0.11,-0.016
0.521,-0.0695,-0.5905,-0.2255,0.5555,-0.3305,1.5285,0.613,0.3335,1.4265,0.569,0.4115,0.3645,0.1115,-0.018
0.523,-0.064,-0.587,-0.2295,0.555,-0.3255,1.529,0.61,0.334,1.4265,0.5695,0.4125,0.365,0.12,-0.015
0.5235,-0.0585,-0.582,-0.232,0.5525,-0.3205,1.5325,0.6125,0.331,1.4285,0.5715,0.415,0.3675,0.1295,-0.0115
0.522,-0.058,-0.58,-0.232,0.551,-0.3195,1.529,0.614,0.328,1.4285,0.571,0.4145,0.369,0.135,-0.013
0.516,-0.063,-0.579,-0.226,0.5475,-0.321,1.5195,0.604,0.3345,1.427,0.569,0.413,0.366,0.129,-0.0165
0.518,-0.0655,-0.584,-0.226,0.551,-0.325,1.5215,0.6045,0.3275,1.4205,0.565,0.412,0.3635,0.1185,-0.0145
0.5155,-0.073,-0.5885,-0.221,0.552,-0.331,1.5215,0.606,0.3285,1.421,0.565,0.4125,0.365,0.1075,-0.012
0.5135,-0.078,-0.5915,-0.2175,0.5525,-0.335,1.525,0.6075,0.3305,1.422,0.5655,0.411,0.362,0.105,-0.0135
0.522,-0.0715,-0.594,-0.225,0.558,-0.333,1.527,0.61,0.336,1.427,0.5685,0.4135,0.365,0.111,-0.0135
0.519,-0.068,-0.587,-0.225,0.553,-0.3275,1.527,0.6135,0.3385,1.4285,0.5705,0.4145,0.3655,0.1235,-0.015
0.516,-0.067,-0.583,-0.224,0.5495,-0.325,1.5275,0.614,0.334,1.427,0.57,0.4135,0.367,0.13,-0.018
0.525,-0.06,-0.5845,-0.2325,0.555,-0.3225,1.5265,0.616,0.344,1.4335,0.5765,0.4195,0.376,0.12,-0.0255
0.5275,-0.0575,-0.585,-0.2345,0.5565,-0.3215,1.5275,0.616,0.3415,1.431,0.5755,0.418,0.3775,0.1165,-0.0235
0.528,-0.0535,-0.5815,-0.237,0.555,-0.3175,1.525,0.615,0.3435,1.433,0.576,0.4185,0.3765,0.131,-0.014
0.531,-0.05,-0.581,-0.24,0.556,-0.3155,1.5265,0.6145,0.3475,1.435,0.578,0.419,0.375,0.1335,-0.016
0.532,-0.0515,-0.5835,-0.24,0.5575,-0.318,1.532,0.6255,0.355,1.4395,0.5795,0.4205,0.374,0.131,-0.0175
0.5295,-0.0505,-0.58,-0.2395,0.5545,-0.3155,1.533,0.631,0.3595,1.4435,0.583,0.422,0.372,0.1375,-0.021
0.53,-0.0525,-0.5825,-0.2385,0.5565,-0.318,1.526,0.6145,0.3495,1.438,0.58,0.4205,0.3715,0.1405,-0.0045
0.532,-0.0535,-0.586,-0.239,0.559,-0.32,1.523,0.6145,0.347,1.438,0.58,0.4215,0.373,0.1405,-0.0015
0.5295,-0.05,-0.58,-0.2395,0.5545,-0.315,1.5245,0.6145,0.347,1.4385,0.583,0.424,0.3715,0.1385,-0.023
0.5275,-0.051,-0.5785,-0.238,0.553,-0.315,1.524,0.617,0.349,1.438,0.5825,0.4245,0.369,0.141,-0.0195
0.5245,-0.054,-0.5785,-0.235,0.5515,-0.3165,1.524,0.6145,0.347,1.437,0.579,0.422,0.3665,0.1415,-0.0145
0.5255,-0.051,-0.5765,-0.237,0.551,-0.314,1.52,0.615,0.348,1.439,0.5795,0.422,0.37,0.141,-0.012
0.5315,-0.0495,-0.5805,-0.2405,0.556,-0.3155,1.518,0.6235,0.3455,1.437,0.579,0.422,0.371,0.1395,-0.014
0.524,-0.055,-0.5785,-0.234,0.5515,-0.317,1.516,0.6145,0.3385,1.4325,0.577,0.42,0.369,0.134,-0.0125
0.517,-0.059,-0.576,-0.229,0.5465,-0.3175,1.5075,0.606,0.3355,1.43,0.5735,0.417,0.3705,0.134,-0.0045
0.5215,-0.0545,-0.576,-0.233,0.549,-0.3155,1.5,0.6055,0.338,1.43,0.573,0.419,0.373,0.1355,-0.0035
0.5175,-0.06,-0.5775,-0.2285,0.5475,-0.319,1.497,0.606,0.3375,1.4295,0.5715,0.4175,0.372,0.133,-0.005
0.5165,-0.0605,-0.577,-0.228,0.547,-0.319,1.497,0.6025,0.3285,1.424,0.567,0.4125,0.368,0.1315,-0.005
0.526,-0.0485,-0.575,-0.2385,0.5505,-0.312,1.501,0.606,0.3335,1.4275,0.5695,0.4135,0.3685,0.1405,-0.0035
0.53,-0.0465,-0.577,-0.2415,0.5535,-0.312,1.4975,0.607,0.3355,1.4325,0.5735,0.417,0.373,0.142,-0.003
0.5225,-0.0485,-0.571,-0.237,0.5465,-0.31,1.4965,0.607,0.334,1.4325,0.5735,0.4155,0.3725,0.1365,-0.004
0.521,-0.05,-0.571,-0.2355,0.546,-0.311,1.4995,0.6065,0.3355,1.431,0.5705,0.412,0.3695,0.139,-0.007
0.527,-0.048,-0.575,-0.239,0.551,-0.312,1.4955,0.606,0.3335,1.4305,0.57,0.412,0.3715,0.144,-0.0055
0.5245,-0.0455,-0.57,-0.239,0.547,-0.308,1.4965,0.61,0.336,1.4325,0.5735,0.413,0.372,0.146,-0.004
0.525,-0.0425,-0.5675,-0.241,0.546,-0.3055,1.4945,0.607,0.3355,1.4325,0.574,0.413,0.373,0.143,-0.008
0.528,-0.044,-0.572,-0.2415,0.55,-0.3085,1.493,0.6025,0.335,1.432,0.5725,0.412,0.374,0.139,-0.002
0.529,-0.0445,-0.573,-0.242,0.551,-0.309,1.494,0.609,0.334,1.4315,0.5735,0.413,0.3745,0.1345,-0.005
0.5265,-0.0415,-0.568,-0.2425,0.5475,-0.3045,1.4975,0.6145,0.331,1.431,0.5735,0.4145,0.373,0.136,-0.019
0.524,-0.044,-0.568,-0.24,0.546,-0.3065,1.499,0.6115,0.333,1.431,0.574,0.4155,0.371,0.139,-0.016
0.52,-0.051,-0.571,-0.234,0.5455,-0.3115,1.4925,0.6095,0.3345,1.432,0.5745,0.4145,0.3715,0.1365,-0.007
0.516,-0.0615,-0.5775,-0.227,0.5465,-0.3195,1.487,0.6,0.3295,1.4305,0.574,0.413,0.3715,0.134,-0.004
0.519,-0.0625,-0.581,-0.228,0.55,-0.322,1.4835,0.598,0.328,1.4325,0.576,0.415,0.3725,0.135,-0.003
0.518,-0.0575,-0.576,-0.23,0.547,-0.317,1.4855,0.6025,0.3325,1.436,0.579,0.4165,0.373,0.1385,-0.0035
0.526,-0.0505,-0.577,-0.2375,0.5515,-0.314,1.487,0.607,0.3355,1.4405,0.584,0.421,0.3775,0.1415,-0.0025
0.5315,-0.0455,-0.577,-0.2425,0.554,-0.3115,1.4925,0.6135,0.339,1.444,0.588,0.426,0.379,0.1405,-0.0025
0.5215,-0.053,-0.5745,-0.234,0.548,-0.314,1.493,0.611,0.339,1.442,0.588,0.423,0.3735,0.135,-0.005
0.5215,-0.053,-0.5745,-0.234,0.548,-0.314,1.492,0.6105,0.34,1.4425,0.59,0.4245,0.376,0.1375,-0.005
0.5275,-0.05,-0.5775,-0.2385,0.5525,-0.314,1.493,0.611,0.3445,1.447,0.5915,0.427,0.382,0.1355,-0.006
0.527,-0.0525,-0.5795,-0.237,0.5535,-0.3165,1.4905,0.612,0.3445,1.4465,0.5915,0.425,0.38,0.135,-0.0065
0.5225,-0.0575,-0.58,-0.232,0.551,-0.319,1.4885,0.6095,0.345,1.445,0.5905,0.4245,0.379,0.1345,-0.0055
0.524,-0.0605,-0.5845,-0.2315,0.554,-0.3225,1.485,0.605,0.341,1.4405,0.587,0.4235,0.3785,0.128,-0.006
0.523,-0.062,-0.5845,-0.23,0.5535,-0.3235,1.484,0.605,0.3385,1.4335,0.5825,0.4215,0.377,0.13,-0.0055
0.512,-0.071,-0.5835,-0.22,0.548,-0.3275,1.482,0.6015,0.3355,1.433,0.5805,0.417,0.3765,0.128,-0.0025
0.513,-0.0725,-0.5855,-0.22,0.549,-0.329,1.4825,0.601,0.3275,1.433,0.579,0.416,0.377,0.125,-0.002
0.519,-0.068,-0.587,-0.225,0.553,-0.328,1.4855,0.604,0.3345,1.435,0.582,0.42,0.384,0.127,-0.001
0.5245,-0.065,-0.5895,-0.2295,0.557,-0.3275,1.4845,0.604,0.343,1.4405,0.5885,0.425,0.39,0.13,0.0025
0.5305,-0.0595,-0.59,-0.235,0.5605,-0.325,1.484,0.604,0.3415,1.44,0.5895,0.427,0.392,0.13,0.0045
0.5335,-0.055,-0.5885,-0.239,0.5605,-0.322,1.484,0.604,0.336,1.435,0.586,0.4245,0.393,0.132,0.007
0.5315,-0.0525,-0.584,-0.2395,0.558,-0.3185,1.486,0.603,0.3315,1.435,0.5845,0.424,0.39,0.1315,0.007
0.532,-0.0555,-0.587,-0.2385,0.5595,-0.3215,1.49,0.609,0.339,1.4375,0.586,0.427,0.3885,0.123,0.0025
0.535,-0.059,-0.594,-0.2375,0.5645,-0.3265,1.482,0.604,0.348,1.4385,0.5875,0.426,0.39,0.1185,0.002
0.527,-0.068,-0.595,-0.229,0.561,-0.3315,1.4775,0.6,0.3415,1.4365,0.5855,0.4215,0.389,0.1165,0.0055
0.5225,-0.076,-0.599,-0.2225,0.561,-0.338,1.48,0.6035,0.3305,1.4325,0.5815,0.4185,0.3825,0.113,0.0045
0.528,-0.075,-0.6035,-0.226,0.5655,-0.3395,1.4755,0.6,0.335,1.434,0.5825,0.422,0.3775,0.1165,0.008
0.53,-0.068,-0.598,-0.231,0.5645,-0.3335,1.4765,0.5955,0.3415,1.4395,0.587,0.425,0.3795,0.124,0.004
0.528,-0.069,-0.5975,-0.229,0.5625,-0.3335,1.4785,0.5945,0.334,1.4365,0.585,0.424,0.3775,0.119,-0.0015
0.53,-0.0725,-0.602,-0.2285,0.566,-0.3375,1.479,0.596,0.3325,1.4305,0.583,0.423,0.373,0.1135,-0.0025
0.5335,-0.0675,-0.6015,-0.2325,0.5675,-0.3345,1.4805,0.599,0.3345,1.427,0.584,0.4255,0.3745,0.1135,-0.0045
0.535,-0.065,-0.6,-0.2345,0.5675,-0.333,1.482,0.608,0.3345,1.4275,0.586,0.428,0.3785,0.1195,0.001
0.53,-0.0695,-0.5995,-0.23,0.565,-0.335,1.4775,0.606,0.335,1.4295,0.5855,0.427,0.3795,0.1215,0.007
0.5285,-0.071,-0.5995,-0.2285,0.564,-0.3355,1.477,0.5985,0.33,1.426,0.579,0.4215,0.3765,0.1165,0.006
0.534,-0.0655,-0.5995,-0.234,0.5665,-0.3325,1.474,0.5925,0.333,1.431,0.5825,0.4225,0.381,0.114,-0.0015
0.537,-0.0615,-0.5985,-0.2375,0.5675,-0.3305,1.467,0.596,0.346,1.4405,0.5925,0.4305,0.391,0.118,-0.001
0.535,-0.065,-0.5995,-0.2345,0.5675,-0.3325,1.4755,0.607,0.3395,1.4365,0.5885,0.4265,0.388,0.12,0.0035
0.535,-0.066,-0.601,-0.234,0.568,-0.334,1.4815,0.6035,0.3325,1.433,0.583,0.4245,0.3835,0.1165,0.0035
0.5395,-0.061,-0.6005,-0.239,0.57,-0.331,1.479,0.6075,0.3385,1.435,0.5835,0.425,0.3835,0.1185,-0.0005
0.534,-0.066,-0.6,-0.2335,0.567,-0.3335,1.482,0.6105,0.336,1.4315,0.579,0.42,0.3845,0.1085,-0.003
