i,ii,iii,avr,avl,avf,v1,v2,v3,v4,v5,v6,vx,vy,vz
0.1455,0.195,0.0495,-0.1705,0.048,0.122,0.2955,0.1265,0.3135,0.2845,0.2625,0.209,-0.0895,-0.2925,-0.077
0.1455,0.199,0.0535,-0.1725,0.0455,0.126,0.2995,0.125,0.3135,0.284,0.261,0.21,-0.089,-0.289,-0.076
0.145,0.198,0.0525,-0.1715,0.046,0.125,0.295,0.1225,0.311,0.2815,0.2595,0.2085,-0.0885,-0.2885,-0.0755
0.146,0.1985,0.0525,-0.1725,0.0465,0.1255,0.292,0.117,0.308,0.278,0.256,0.2055,-0.0895,-0.287,-0.0765
0.144,0.197,0.053,-0.171,0.045,0.125,0.292,0.122,0.313,0.284,0.2625,0.209,-0.0865,-0.2875,-0.076
0.145,0.1985,0.0535,-0.172,0.0455,0.126,0.291,0.1195,0.3105,0.28,0.258,0.2055,-0.0865,-0.284,-0.0735
0.1475,0.203,0.0555,-0.1755,0.046,0.129,0.29,0.114,0.3055,0.27,0.2515,0.1995,-0.09,-0.28,-0.0735
0.147,0.2055,0.0585,-0.177,0.044,0.132,0.2875,0.1155,0.3075,0.271,0.255,0.2015,-0.089,-0.2785,-0.074
0.149,0.2065,0.0575,-0.178,0.0455,0.132,0.288,0.1145,0.306,0.2705,0.252,0.1985,-0.092,-0.278,-0.074
0.1435,0.1995,0.056,-0.1715,0.0435,0.128,0.294,0.1155,0.3045,0.2695,0.2515,0.198,-0.0965,-0.278,-0.077
0.1445,0.197,0.052,-0.171,0.046,0.1245,0.2945,0.1185,0.308,0.2755,0.2555,0.2045,-0.0935,-0.285,-0.076
0.1505,0.198,0.0475,-0.1745,0.0515,0.123,0.294,0.122,0.3115,0.2815,0.2595,0.2065,-0.09,-0.2895,-0.074
0.148,0.1975,0.0495,-0.173,0.049,0.1235,0.298,0.1215,0.31,0.283,0.2615,0.209,-0.089,-0.2905,-0.0725
0.145,0.1985,0.053,-0.172,0.0455,0.1255,0.298,0.1225,0.3125,0.2855,0.2615,0.21,-0.088,-0.29,-0.0725
0.146,0.1975,0.0515,-0.172,0.047,0.1245,0.297,0.1265,0.3135,0.286,0.261,0.2085,-0.088,-0.291,-0.0755
0.144,0.1945,0.0505,-0.1695,0.0465,0.1225,0.297,0.123,0.3085,0.2825,0.256,0.208,-0.091,-0.298,-0.076
0.1385,0.1895,0.051,-0.164,0.0435,0.12,0.2995,0.124,0.31,0.2865,0.2585,0.2105,-0.0895,-0.3,-0.074
0.139,0.1865,0.048,-0.163,0.045,0.1175,0.301,0.127,0.3125,0.2895,0.261,0.216,-0.087,-0.3055,-0.075
0.1395,0.187,0.048,-0.1635,0.0455,0.1175,0.3005,0.1255,0.3105,0.2895,0.2605,0.216,-0.0885,-0.3055,-0.073
0.1375,0.1905,0.0535,-0.164,0.0415,0.122,0.2995,0.1225,0.309,0.2875,0.259,0.213,-0.088,-0.301,-0.0705
0.137,0.194,0.057,-0.1655,0.0395,0.1255,0.2945,0.1145,0.3045,0.2795,0.2555,0.208,-0.0895,-0.296,-0.0695
0.1385,0.196,0.0575,-0.1675,0.0405,0.1265,0.289,0.112,0.3025,0.2765,0.2545,0.2075,-0.089,-0.2905,-0.068
0.1385,0.1975,0.059,-0.168,0.0395,0.128,0.287,0.1085,0.301,0.276,0.2535,0.205,-0.09,-0.289,-0.0695
0.1385,0.1985,0.06,-0.1685,0.039,0.129,0.2885,0.1105,0.3035,0.2765,0.255,0.2045,-0.0895,-0.2845,-0.0695
0.1375,0.1965,0.059,-0.167,0.039,0.1275,0.291,0.1155,0.307,0.277,0.255,0.207,-0.0885,-0.283,-0.0675
0.1365,0.197,0.06,-0.167,0.038,0.1285,0.288,0.1115,0.305,0.276,0.2535,0.204,-0.089,-0.2805,-0.0675
0.141,0.2055,0.0645,-0.1735,0.038,0.135,0.284,0.106,0.301,0.272,0.2515,0.203,-0.0885,-0.275,-0.0685
0.145,0.21,0.065,-0.178,0.0395,0.1375,0.284,0.1045,0.2975,0.268,0.2515,0.203,-0.086,-0.274,-0.0675
0.1505,0.212,0.0615,-0.1815,0.0445,0.137,0.2825,0.1055,0.298,0.268,0.252,0.2015,-0.0885,-0.274,-0.0675
0.1555,0.214,0.059,-0.185,0.048,0.1365,0.285,0.1075,0.302,0.275,0.2555,0.207,-0.0875,-0.2795,-0.067
0.1525,0.21,0.0575,-0.1815,0.047,0.134,0.2905,0.1165,0.307,0.2815,0.2595,0.2125,-0.086,-0.282,-0.065
0.151,0.2075,0.056,-0.1795,0.0475,0.1315,0.2885,0.1165,0.3055,0.281,0.258,0.211,-0.0875,-0.284,-0.0645
0.1545,0.2025,0.048,-0.1785,0.053,0.125,0.287,0.1155,0.306,0.2845,0.261,0.211,-0.085,-0.291,-0.066
0.1535,0.197,0.0435,-0.1755,0.055,0.12,0.2895,0.1155,0.3045,0.2825,0.2585,0.2095,-0.0875,-0.293,-0.066
0.1525,0.1935,0.041,-0.173,0.0555,0.117,0.2875,0.1055,0.2995,0.2805,0.257,0.2105,-0.0855,-0.2945,-0.064
0.152,0.19,0.038,-0.1715,0.057,0.114,0.29,0.11,0.3015,0.282,0.257,0.2115,-0.086,-0.298,-0.0655
0.1515,0.1895,0.038,-0.1705,0.0565,0.1135,0.293,0.117,0.302,0.2845,0.2555,0.212,-0.089,-0.2995,-0.0655
0.147,0.1835,0.036,-0.1655,0.0555,0.11,0.2945,0.118,0.303,0.29,0.2595,0.217,-0.086,-0.3015,-0.0655
0.145,0.1815,0.037,-0.1635,0.054,0.109,0.2945,0.1195,0.302,0.2895,0.259,0.216,-0.086,-0.3035,-0.0655
0.145,0.183,0.0385,-0.164,0.053,0.1105,0.2925,0.1135,0.299,0.284,0.255,0.2105,-0.087,-0.2995,-0.064
0.1475,0.1895,0.042,-0.1685,0.0525,0.1155,0.287,0.1125,0.302,0.2845,0.2575,0.2115,-0.0845,-0.29,-0.0665
0.149,0.196,0.0465,-0.1725,0.0515,0.121,0.285,0.114,0.303,0.286,0.26,0.213,-0.084,-0.2865,-0.068
0.149,0.196,0.047,-0.173,0.051,0.1215,0.288,0.1115,0.297,0.278,0.255,0.208,-0.0875,-0.288,-0.0675
0.1495,0.1965,0.047,-0.1735,0.051,0.122,0.2825,0.1075,0.2955,0.2765,0.2535,0.207,-0.088,-0.292,-0.067
0.146,0.193,0.047,-0.17,0.0495,0.12,0.282,0.104,0.2955,0.275,0.253,0.2055,-0.091,-0.29,-0.0665
0.1485,0.194,0.0455,-0.1715,0.0515,0.1195,0.283,0.1035,0.2945,0.2725,0.253,0.204,-0.0905,-0.287,-0.067
0.1505,0.199,0.0485,-0.1745,0.051,0.1235,0.2795,0.1035,0.294,0.27,0.254,0.2035,-0.0885,-0.286,-0.0655
0.1535,0.206,0.053,-0.18,0.05,0.1295,0.284,0.1045,0.2935,0.2665,0.2515,0.202,-0.091,-0.28,-0.0655
0.1575,0.2095,0.052,-0.184,0.0525,0.1305,0.2845,0.107,0.2955,0.2685,0.252,0.2025,-0.091,-0.2845,-0.0685
0.161,0.2075,0.047,-0.1845,0.0565,0.127,0.285,0.109,0.2935,0.27,0.254,0.2055,-0.09,-0.291,-0.0675
0.16,0.206,0.0465,-0.183,0.0565,0.1265,0.2885,0.1115,0.2955,0.2765,0.258,0.2115,-0.088,-0.2915,-0.067
0.1555,0.2035,0.048,-0.1795,0.0535,0.1255,0.29,0.111,0.2965,0.2805,0.26,0.2115,-0.0895,-0.291,-0.068
0.159,0.1975,0.0385,-0.1785,0.06,0.118,0.294,0.111,0.295,0.276,0.256,0.2095,-0.092,-0.294,-0.067
0.164,0.1965,0.0325,-0.1805,0.0655,0.1145,0.292,0.113,0.2945,0.2745,0.255,0.21,-0.091,-0.3,-0.0675
0.166,0.203,0.0365,-0.185,0.0645,0.1195,0.29,0.113,0.296,0.2765,0.257,0.2115,-0.091,-0.301,-0.07
0.1555,0.1935,0.038,-0.175,0.0585,0.116,0.294,0.114,0.297,0.277,0.2565,0.213,-0.0915,-0.302,-0.0695
0.15,0.1875,0.0375,-0.1695,0.056,0.1125,0.295,0.115,0.296,0.2795,0.256,0.214,-0.0935,-0.302,-0.0675
0.159,0.1945,0.0355,-0.177,0.0615,0.115,0.298,0.1205,0.302,0.286,0.2595,0.22,-0.09,-0.301,-0.065
0.154,0.1915,0.0375,-0.1735,0.058,0.1145,0.2975,0.119,0.3015,0.284,0.257,0.2205,-0.086,-0.3045,-0.0615
0.1485,0.1915,0.0435,-0.1705,0.0525,0.1175,0.2955,0.111,0.2965,0.2775,0.2535,0.215,-0.0885,-0.303,-0.06
0.153,0.204,0.051,-0.1785,0.051,0.127,0.2955,0.119,0.3015,0.2785,0.2585,0.214,-0.0885,-0.292,-0.0645
0.153,0.208,0.055,-0.1805,0.0485,0.1315,0.2915,0.1135,0.299,0.2775,0.257,0.2135,-0.088,-0.2895,-0.0665
0.1525,0.206,0.0535,-0.1795,0.0495,0.1295,0.294,0.1095,0.2945,0.2745,0.253,0.2095,-0.0895,-0.291,-0.0655
0.145,0.209,0.064,-0.1775,0.04,0.1365,0.296,0.115,0.299,0.277,0.2545,0.212,-0.0915,-0.2875,-0.067
0.14,0.203,0.063,-0.172,0.038,0.133,0.2925,0.1065,0.2945,0.274,0.251,0.211,-0.092,-0.2855,-0.0625
0.1465,0.2,0.0535,-0.1735,0.046,0.127,0.288,0.1055,0.29,0.269,0.248,0.206,-0.0935,-0.2835,-0.061
0.1555,0.2095,0.054,-0.183,0.0505,0.132,0.28,0.1045,0.29,0.266,0.2465,0.202,-0.093,-0.2785,-0.064
0.176,0.217,0.041,-0.197,0.067,0.129,0.2785,0.0995,0.2845,0.257,0.24,0.195,-0.0935,-0.274,-0.065
0.1805,0.219,0.0385,-0.2,0.0705,0.129,0.2805,0.1,0.284,0.2575,0.2385,0.1955,-0.0945,-0.2775,-0.066
0.169,0.2175,0.0485,-0.1935,0.06,0.133,0.2835,0.1025,0.286,0.2665,0.244,0.202,-0.094,-0.281,-0.0675
0.1675,0.2135,0.046,-0.191,0.0605,0.13,0.2875,0.111,0.291,0.272,0.2485,0.2065,-0.094,-0.2865,-0.0675
0.168,0.213,0.045,-0.1905,0.061,0.129,0.2815,0.113,0.2955,0.275,0.25,0.208,-0.0925,-0.2875,-0.0665
0.166,0.213,0.047,-0.19,0.0595,0.13,0.2895,0.1125,0.294,0.2755,0.25,0.2085,-0.0915,-0.284,-0.0665
0.1655,0.2095,0.044,-0.188,0.0605,0.127,0.293,0.108,0.292,0.276,0.2495,0.2085,-0.093,-0.286,-0.067
0.163,0.2085,0.046,-0.186,0.0585,0.127,0.294,0.11,0.292,0.2775,0.249,0.209,-0.092,-0.285,-0.067
0.162,0.207,0.045,-0.185,0.0585,0.126,0.2955,0.1135,0.2935,0.279,0.25,0.2125,-0.0895,-0.293,-0.068
0.157,0.1985,0.0415,-0.178,0.0575,0.12,0.2885,0.1145,0.2945,0.2815,0.2495,0.2125,-0.09,-0.303,-0.068
0.147,0.186,0.039,-0.1665,0.0535,0.1125,0.2915,0.116,0.2915,0.2815,0.248,0.212,-0.0905,-0.3045,-0.067
0.1455,0.186,0.041,-0.166,0.052,0.1135,0.288,0.1155,0.2925,0.2835,0.249,0.2135,-0.088,-0.3,-0.067
0.1425,0.189,0.047,-0.166,0.0475,0.118,0.288,0.116,0.2925,0.281,0.246,0.2105,-0.0885,-0.296,-0.0675
0.1415,0.1915,0.05,-0.1665,0.0455,0.1205,0.288,0.1095,0.2885,0.2735,0.242,0.206,-0.092,-0.294,-0.067
0.142,0.1945,0.052,-0.1685,0.0445,0.1235,0.286,0.108,0.288,0.2735,0.2435,0.207,-0.089,-0.29,-0.0665
0.1405,0.1925,0.052,-0.167,0.044,0.1225,0.2835,0.1065,0.285,0.2705,0.2415,0.206,-0.088,-0.287,-0.068
0.1425,0.195,0.0525,-0.169,0.0445,0.124,0.279,0.102,0.2835,0.2665,0.238,0.201,-0.0915,-0.282,-0.0705
0.139,0.1915,0.0525,-0.1655,0.043,0.122,0.281,0.1025,0.284,0.264,0.2375,0.1995,-0.0935,-0.284,-0.0705
0.1375,0.193,0.0555,-0.1655,0.0405,0.124,0.2805,0.1005,0.2835,0.262,0.238,0.1995,-0.093,-0.2835,-0.069
0.1415,0.2,0.0585,-0.171,0.0415,0.129,0.2775,0.1005,0.2825,0.26,0.235,0.1975,-0.093,-0.2805,-0.0695
0.1465,0.2045,0.058,-0.176,0.044,0.1315,0.2765,0.1,0.284,0.2585,0.2345,0.196,-0.0945,-0.275,-0.0695
0.1515,0.211,0.059,-0.1815,0.046,0.135,0.2765,0.101,0.2885,0.2615,0.2395,0.1975,-0.0945,-0.2715,-0.0705
0.1505,0.208,0.0575,-0.1795,0.046,0.1325,0.278,0.1065,0.2935,0.268,0.2455,0.2005,-0.0955,-0.28,-0.072
0.148,0.205,0.057,-0.177,0.0455,0.131,0.284,0.1095,0.296,0.2695,0.246,0.205,-0.097,-0.2835,-0.071
0.151,0.205,0.054,-0.1785,0.0485,0.1295,0.2875,0.107,0.2905,0.2655,0.2425,0.2045,-0.1,-0.2865,-0.069
0.15,0.201,0.0505,-0.1755,0.0495,0.1255,0.282,0.1075,0.292,0.271,0.245,0.206,-0.098,-0.291,-0.0675
0.139,0.1985,0.0595,-0.1685,0.0395,0.129,0.2865,0.1135,0.296,0.2745,0.2475,0.21,-0.0975,-0.2915,-0.0695
0.138,0.198,0.06,-0.168,0.039,0.129,0.29,0.1105,0.293,0.2695,0.243,0.207,-0.1005,-0.289,-0.0705
0.138,0.196,0.058,-0.167,0.0395,0.127,0.287,0.113,0.296,0.274,0.2445,0.2115,-0.098,-0.286,-0.07
0.1335,0.1905,0.0565,-0.162,0.0385,0.1235,0.2915,0.1185,0.298,0.278,0.2465,0.213,-0.0975,-0.291,-0.0695
0.1405,0.1855,0.045,-0.163,0.0475,0.115,0.2875,0.112,0.294,0.278,0.2445,0.211,-0.097,-0.2935,-0.069
0.134,0.1855,0.052,-0.16,0.041,0.1185,0.2875,0.116,0.298,0.2835,0.2495,0.2155,-0.094,-0.2875,-0.0705
0.1315,0.187,0.0555,-0.1595,0.038,0.121,0.2895,0.1145,0.297,0.28,0.247,0.2115,-0.095,-0.287,-0.0695
0.1355,0.195,0.0595,-0.1655,0.0375,0.1275,0.289,0.113,0.297,0.2805,0.249,0.2095,-0.094,-0.285,-0.0715
0.1315,0.1975,0.0655,-0.1645,0.0325,0.1315,0.2865,0.1125,0.2965,0.2785,0.249,0.209,-0.093,-0.2815,-0.072
0.1325,0.194,0.062,-0.1635,0.035,0.128,0.283,0.105,0.2865,0.2685,0.242,0.204,-0.0945,-0.286,-0.069
0.131,0.1925,0.0615,-0.162,0.0345,0.127,0.284,0.108,0.2875,0.269,0.2435,0.2045,-0.0945,-0.288,-0.0695
0.132,0.192,0.06,-0.162,0.0355,0.126,0.2785,0.11,0.293,0.273,0.248,0.207,-0.0925,-0.2845,-0.0715
0.137,0.1985,0.0615,-0.1675,0.0375,0.13,0.283,0.11,0.2915,0.272,0.2475,0.205,-0.092,-0.2815,-0.072
0.1455,0.2055,0.06,-0.176,0.043,0.1325,0.2845,0.1045,0.288,0.264,0.241,0.198,-0.095,-0.277,-0.072
0.1575,0.2185,0.061,-0.188,0.048,0.1395,0.2795,0.1035,0.2915,0.265,0.245,0.198,-0.093,-0.2735,-0.0705
0.158,0.222,0.0635,-0.1905,0.047,0.143,0.284,0.109,0.2965,0.268,0.2485,0.201,-0.092,-0.2725,-0.072
0.1505,0.2135,0.0635,-0.1825,0.0435,0.1385,0.285,0.107,0.293,0.269,0.2475,0.2025,-0.094,-0.2765,-0.0735
0.151,0.212,0.061,-0.1815,0.0445,0.1365,0.283,0.11,0.297,0.275,0.2505,0.2075,-0.093,-0.278,-0.0725
0.153,0.212,0.059,-0.1825,0.0465,0.1355,0.287,0.115,0.301,0.277,0.252,0.208,-0.092,-0.2795,-0.0715
0.1565,0.2105,0.054,-0.184,0.051,0.132,0.29,0.114,0.2985,0.276,0.2505,0.2075,-0.0935,-0.288,-0.071
0.1585,0.207,0.049,-0.183,0.0545,0.128,0.293,0.1165,0.302,0.2775,0.252,0.21,-0.092,-0.286,-0.0715
0.1595,0.21,0.051,-0.185,0.054,0.1305,0.293,0.1175,0.3055,0.2795,0.2535,0.21,-0.092,-0.289,-0.0705
0.1535,0.2065,0.053,-0.18,0.05,0.1295,0.2935,0.1185,0.304,0.2805,0.253,0.2105,-0.096,-0.294,-0.072
0.144,0.197,0.0525,-0.171,0.0455,0.1245,0.2995,0.1215,0.3055,0.2845,0.255,0.215,-0.095,-0.291,-0.0725
0.1495,0.1965,0.047,-0.173,0.051,0.1215,0.3,0.123,0.307,0.286,0.254,0.2165,-0.0945,-0.2955,-0.07
0.146,0.194,0.048,-0.1705,0.049,0.121,0.2955,0.1235,0.304,0.286,0.2545,0.216,-0.0935,-0.293,-0.069
0.139,0.1925,0.054,-0.166,0.0425,0.123,0.291,0.1185,0.3015,0.282,0.252,0.2125,-0.095,-0.2875,-0.0695
0.1375,0.1925,0.055,-0.165,0.041,0.124,0.2935,0.1145,0.297,0.2745,0.246,0.207,-0.0985,-0.286,-0.072
0.142,0.198,0.056,-0.17,0.0425,0.127,0.2935,0.115,0.298,0.276,0.249,0.209,-0.0945,-0.2825,-0.074
0.1455,0.204,0.0585,-0.175,0.0435,0.1315,0.2885,0.114,0.297,0.2745,0.2495,0.2095,-0.094,-0.2795,-0.0725
0.1435,0.2025,0.059,-0.173,0.042,0.1305,0.288,0.114,0.2975,0.274,0.248,0.209,-0.094,-0.2825,-0.0725
0.1445,0.205,0.06,-0.175,0.042,0.1325,0.29,0.115,0.3025,0.279,0.2515,0.212,-0.0935,-0.284,-0.0745
0.1505,0.2125,0.062,-0.182,0.044,0.1375,0.29,0.1145,0.3025,0.2755,0.25,0.2105,-0.093,-0.279,-0.072
0.156,0.219,0.063,-0.188,0.0465,0.141,0.2875,0.114,0.302,0.272,0.2485,0.2065,-0.0945,-0.2755,-0.0725
0.16,0.227,0.067,-0.194,0.046,0.147,0.2875,0.113,0.3035,0.274,0.251,0.2085,-0.0935,-0.2735,-0.075
0.16,0.225,0.065,-0.193,0.047,0.145,0.2865,0.1125,0.3035,0.2745,0.2505,0.208,-0.093,-0.277,-0.0755
0.16,0.2225,0.063,-0.1915,0.048,0.143,0.2895,0.1165,0.308,0.2785,0.253,0.211,-0.094,-0.2835,-0.0765
0.1645,0.2245,0.06,-0.195,0.052,0.142,0.2945,0.122,0.3125,0.2835,0.2575,0.219,-0.09,-0.2875,-0.074
0.1615,0.2195,0.058,-0.191,0.051,0.139,0.297,0.1255,0.315,0.285,0.2595,0.22,-0.091,-0.2855,-0.074
0.158,0.218,0.06,-0.188,0.0485,0.139,0.298,0.128,0.32,0.2895,0.2635,0.2235,-0.09,-0.2825,-0.0735
0.1575,0.2145,0.0575,-0.1865,0.0495,0.136,0.296,0.127,0.3165,0.2875,0.2625,0.222,-0.092,-0.2855,-0.0725
0.1535,0.215,0.0615,-0.1845,0.046,0.1385,0.296,0.1265,0.316,0.2875,0.265,0.221,-0.0905,-0.284,-0.073
0.153,0.2135,0.0605,-0.184,0.046,0.137,0.3005,0.1295,0.317,0.2905,0.265,0.2245,-0.089,-0.287,-0.0725
0.1525,0.2055,0.053,-0.179,0.0495,0.129,0.3015,0.129,0.314,0.2895,0.261,0.2235,-0.0935,-0.296,-0.074
0.147,0.201,0.0535,-0.174,0.0465,0.127,0.3005,0.13,0.316,0.2945,0.264,0.227,-0.09,-0.297,-0.073
0.1445,0.1975,0.0525,-0.171,0.0455,0.125,0.302,0.1295,0.3155,0.2945,0.263,0.2275,-0.089,-0.297,-0.0735
0.145,0.2,0.0545,-0.1725,0.045,0.127,0.302,0.1255,0.313,0.29,0.262,0.2215,-0.0915,-0.2925,-0.0765
0.148,0.2075,0.0595,-0.178,0.044,0.1335,0.2955,0.124,0.3125,0.2905,0.2615,0.22,-0.0895,-0.283,-0.0775
0.149,0.2095,0.0605,-0.1795,0.044,0.135,0.295,0.122,0.3105,0.2885,0.26,0.2195,-0.089,-0.2845,-0.0775
0.1495,0.213,0.0635,-0.1815,0.0425,0.138,0.297,0.122,0.3085,0.286,0.259,0.2185,-0.089,-0.2815,-0.0765
0.154,0.214,0.06,-0.1845,0.0465,0.1375,0.2935,0.118,0.308,0.2865,0.2585,0.219,-0.0875,-0.278,-0.0745
0.1485,0.211,0.062,-0.18,0.043,0.1365,0.293,0.1185,0.308,0.285,0.2605,0.2175,-0.089,-0.2825,-0.075
0.1445,0.2125,0.068,-0.1785,0.038,0.1405,0.2915,0.118,0.307,0.2815,0.259,0.2145,-0.09,-0.2765,-0.0745
0.1565,0.222,0.0655,-0.1895,0.045,0.144,0.2875,0.113,0.3025,0.2755,0.2545,0.2115,-0.0905,-0.2725,-0.074
0.167,0.2315,0.064,-0.1995,0.051,0.148,0.288,0.1175,0.3055,0.275,0.2555,0.21,-0.089,-0.273,-0.075
0.1715,0.2365,0.065,-0.204,0.053,0.1505,0.288,0.116,0.3095,0.2795,0.259,0.2135,-0.089,-0.2705,-0.0755
0.169,0.236,0.0665,-0.2025,0.051,0.151,0.291,0.1195,0.311,0.2835,0.2625,0.2175,-0.0885,-0.27,-0.0765
0.163,0.228,0.065,-0.196,0.0485,0.1465,0.296,0.1245,0.3125,0.283,0.2615,0.2175,-0.09,-0.2785,-0.076
0.1635,0.225,0.061,-0.1945,0.051,0.143,0.2935,0.116,0.308,0.277,0.2575,0.2155,-0.0925,-0.283,-0.0735
0.1655,0.221,0.0555,-0.1935,0.055,0.1385,0.294,0.12,0.31,0.28,0.26,0.217,-0.092,-0.284,-0.0745
0.1665,0.2205,0.0545,-0.194,0.0555,0.1375,0.3015,0.129,0.3135,0.2855,0.263,0.219,-0.091,-0.2845,-0.076
0.169,0.226,0.057,-0.1975,0.056,0.1415,0.2985,0.1265,0.3135,0.285,0.264,0.22,-0.09,-0.282,-0.0775
0.1715,0.224,0.052,-0.198,0.0595,0.138,0.2935,0.1255,0.313,0.286,0.262,0.2195,-0.0895,-0.2845,-0.077
0.17,0.215,0.045,-0.1925,0.062,0.13,0.296,0.124,0.3125,0.289,0.2625,0.219,-0.089,-0.29,-0.074
0.161,0.205,0.0445,-0.183,0.058,0.125,0.2995,0.127,0.3145,0.292,0.263,0.2205,-0.091,-0.2925,-0.075
0.154,0.202,0.048,-0.1785,0.053,0.125,0.2965,0.1255,0.311,0.2885,0.26,0.217,-0.091,-0.2915,-0.0735
0.1565,0.2075,0.0515,-0.1825,0.052,0.1295,0.2925,0.1205,0.309,0.2865,0.258,0.216,-0.089,-0.285,-0.073
0.158,0.214,0.056,-0.1865,0.051,0.135,0.2955,0.1225,0.3115,0.2875,0.2585,0.2155,-0.09,-0.279,-0.0755
0.163,0.22,0.0575,-0.1915,0.0525,0.1385,0.2925,0.119,0.3085,0.2845,0.2585,0.214,-0.0905,-0.281,-0.076
0.168,0.2285,0.0605,-0.1985,0.0535,0.1445,0.292,0.1225,0.3115,0.285,0.2595,0.214,-0.091,-0.2795,-0.078
0.1695,0.2335,0.0635,-0.202,0.053,0.1485,0.293,0.117,0.3115,0.284,0.261,0.2145,-0.0915,-0.277,-0.076
0.1725,0.231,0.0585,-0.202,0.057,0.145,0.292,0.114,0.307,0.2795,0.257,0.2135,-0.0905,-0.28,-0.0715
0.1705,0.2305,0.06,-0.2005,0.055,0.145,0.291,0.1225,0.3095,0.2775,0.256,0.2125,-0.0895,-0.2725,-0.071
0.1745,0.236,0.0615,-0.2055,0.0565,0.1485,0.289,0.1175,0.3075,0.2755,0.2565,0.21,-0.0905,-0.269,-0.072
0.176,0.2395,0.064,-0.208,0.056,0.1515,0.2895,0.1135,0.3035,0.2715,0.254,0.207,-0.091,-0.27,-0.0735
0.172,0.2405,0.069,-0.2065,0.0515,0.1545,0.29,0.113,0.304,0.272,0.255,0.208,-0.091,-0.2655,-0.074
0.173,0.238,0.065,-0.2055,0.054,0.151,0.2935,0.1155,0.308,0.2785,0.256,0.213,-0.0885,-0.27,-0.0725
0.1725,0.2335,0.061,-0.2035,0.0555,0.1475,0.298,0.117,0.3085,0.2795,0.255,0.2155,-0.0885,-0.2775,-0.0715
0.1735,0.231,0.0575,-0.2025,0.058,0.144,0.299,0.115,0.3065,0.279,0.255,0.214,-0.09,-0.282,-0.0705
0.174,0.2295,0.0555,-0.202,0.059,0.1425,0.2995,0.12,0.313,0.2835,0.2575,0.216,-0.0855,-0.279,-0.0705
0.173,0.232,0.059,-0.2025,0.0565,0.1455,0.299,0.124,0.3155,0.288,0.262,0.2195,-0.082,-0.2795,-0.0725
0.17,0.2315,0.0615,-0.201,0.0545,0.1465,0.2975,0.119,0.31,0.2855,0.261,0.217,-0.085,-0.2825,-0.071
0.163,0.225,0.062,-0.194,0.05,0.1435,0.2975,0.12,0.3105,0.286,0.2605,0.22,-0.0865,-0.282,-0.0685
0.1595,0.2205,0.061,-0.19,0.049,0.141,0.303,0.128,0.316,0.2935,0.265,0.227,-0.0835,-0.2895,-0.0685
0.161,0.2175,0.057,-0.1895,0.0515,0.1375,0.305,0.13,0.3165,0.297,0.2665,0.2295,-0.083,-0.2945,-0.069
0.1565,0.2145,0.0585,-0.186,0.049,0.1365,0.303,0.1295,0.3155,0.2965,0.266,0.2285,-0.0845,-0.291,-0.0685
0.1555,0.218,0.0625,-0.187,0.046,0.1405,0.301,0.1245,0.312,0.2885,0.2615,0.2205,-0.0895,-0.2835,-0.0685
0.155,0.2225,0.067,-0.189,0.0435,0.1445,0.3,0.1235,0.313,0.2885,0.2635,0.221,-0.0895,-0.282,-0.071
0.1555,0.226,0.0705,-0.1905,0.042,0.148,0.3005,0.126,0.3165,0.29,0.2655,0.224,-0.0875,-0.2825,-0.0735
0.1595,0.2275,0.068,-0.1935,0.0455,0.1475,0.297,0.1205,0.31,0.2825,0.2585,0.218,-0.089,-0.28,-0.0735
0.158,0.2265,0.0685,-0.1925,0.0445,0.1475,0.293,0.1145,0.305,0.277,0.256,0.215,-0.09,-0.278,-0.073
0.1585,0.2235,0.0645,-0.191,0.0465,0.144,0.289,0.112,0.3035,0.274,0.2545,0.213,-0.0905,-0.2765,-0.072
0.1685,0.2255,0.057,-0.197,0.0555,0.141,0.2815,0.109,0.2995,0.27,0.252,0.208,-0.0895,-0.2705,-0.072
0.172,0.232,0.06,-0.2025,0.056,0.146,0.2805,0.106,0.296,0.264,0.2485,0.203,-0.0925,-0.271,-0.0725
0.1705,0.235,0.064,-0.203,0.053,0.1495,0.2815,0.1035,0.2945,0.2635,0.247,0.201,-0.0935,-0.2705,-0.0725
0.167,0.234,0.0665,-0.2005,0.05,0.1505,0.28,0.1025,0.2945,0.2635,0.248,0.202,-0.094,-0.266,-0.075
0.163,0.2295,0.0665,-0.1965,0.048,0.148,0.284,0.106,0.2945,0.2655,0.248,0.203,-0.0955,-0.272,-0.075
0.167,0.2285,0.061,-0.198,0.0525,0.1445,0.287,0.107,0.295,0.2695,0.2495,0.2085,-0.0935,-0.2755,-0.072
0.1675,0.2275,0.06,-0.1975,0.0535,0.1435,0.2865,0.109,0.2975,0.271,0.251,0.209,-0.0935,-0.2785,-0.074
0.166,0.224,0.058,-0.1955,0.054,0.141,0.2855,0.11,0.2985,0.272,0.253,0.2085,-0.092,-0.286,-0.0705
0.16,0.223,0.063,-0.1915,0.048,0.143,0.2885,0.1105,0.3,0.275,0.2545,0.2115,-0.0925,-0.2815,-0.0685
0.1555,0.2215,0.066,-0.1885,0.0445,0.144,0.291,0.1135,0.2985,0.2745,0.252,0.209,-0.095,-0.281,-0.069
0.16,0.22,0.06,-0.19,0.0495,0.1405,0.2905,0.1095,0.296,0.273,0.25,0.2085,-0.096,-0.289,-0.0685
0.1615,0.2195,0.058,-0.191,0.0515,0.139,0.2945,0.113,0.299,0.278,0.252,0.2125,-0.0955,-0.291,-0.071
0.1575,0.214,0.0565,-0.186,0.05,0.135,0.296,0.1185,0.303,0.286,0.257,0.2175,-0.092,-0.294,-0.068
0.151,0.2085,0.0575,-0.18,0.0465,0.1335,0.296,0.1165,0.301,0.286,0.256,0.215,-0.093,-0.294,-0.067
0.1495,0.209,0.0595,-0.1795,0.0445,0.1345,0.2945,0.1155,0.297,0.281,0.2535,0.2105,-0.0945,-0.2885,-0.067
0.149,0.214,0.065,-0.182,0.042,0.1395,0.293,0.112,0.2965,0.28,0.253,0.21,-0.094,-0.2845,-0.0685
0.152,0.2195,0.067,-0.186,0.042,0.1435,0.292,0.11,0.2945,0.279,0.2505,0.207,-0.095,-0.281,-0.0695
0.1535,0.2215,0.068,-0.188,0.0425,0.145,0.2855,0.1005,0.29,0.2745,0.248,0.2065,-0.094,-0.279,-0.0645
0.1525,0.224,0.0715,-0.1885,0.0405,0.148,0.2865,0.1045,0.2905,0.2715,0.243,0.204,-0.098,-0.279,-0.067
0.157,0.224,0.067,-0.1905,0.0445,0.1455,0.29,0.114,0.2955,0.2755,0.2465,0.2055,-0.095,-0.279,-0.0685
0.159,0.2245,0.0655,-0.192,0.0465,0.145,0.2835,0.106,0.291,0.272,0.246,0.203,-0.0945,-0.2785,-0.068
0.16,0.2315,0.071,-0.196,0.044,0.151,0.2835,0.1045,0.286,0.265,0.24,0.198,-0.099,-0.2715,-0.0675
0.1655,0.238,0.072,-0.202,0.0465,0.155,0.285,0.105,0.287,0.264,0.2415,0.201,-0.095,-0.2645,-0.0655
0.169,0.24,0.071,-0.2045,0.0485,0.1555,0.284,0.105,0.288,0.267,0.243,0.2015,-0.096,-0.2615,-0.0665
0.167,0.2375,0.0705,-0.2025,0.048,0.154,0.2895,0.1085,0.291,0.2725,0.245,0.205,-0.097,-0.2695,-0.0675
0.1635,0.2315,0.068,-0.1975,0.0475,0.15,0.291,0.1095,0.2905,0.273,0.244,0.2075,-0.0965,-0.2785,-0.0665
0.1605,0.2275,0.0665,-0.1945,0.047,0.147,0.2895,0.11,0.291,0.2725,0.243,0.208,-0.096,-0.28,-0.0635
0.1585,0.222,0.0635,-0.19,0.047,0.143,0.291,0.1105,0.292,0.274,0.2435,0.208,-0.096,-0.281,-0.064
0.161,0.224,0.063,-0.1925,0.0485,0.1435,0.293,0.1135,0.2945,0.2765,0.244,0.208,-0.097,-0.2805,-0.0645
0.162,0.226,0.064,-0.194,0.0485,0.145,0.292,0.112,0.295,0.276,0.245,0.209,-0.0975,-0.28,-0.0645
0.1555,0.219,0.063,-0.1875,0.046,0.141,0.294,0.1115,0.2965,0.2775,0.247,0.211,-0.0965,-0.284,-0.064
0.15,0.2145,0.0645,-0.1825,0.0425,0.1395,0.2985,0.119,0.3045,0.2885,0.255,0.2185,-0.0915,-0.2895,-0.0635
0.144,0.2055,0.0615,-0.175,0.041,0.1335,0.2965,0.1185,0.3025,0.2875,0.252,0.2165,-0.0925,-0.297,-0.064
0.142,0.198,0.0555,-0.1705,0.043,0.1265,0.2925,0.1145,0.294,0.2795,0.2425,0.2105,-0.0965,-0.304,-0.0615
0.14,0.1985,0.0585,-0.1695,0.0405,0.1285,0.292,0.1105,0.2905,0.2755,0.241,0.207,-0.098,-0.295,-0.0635
0.134,0.1965,0.0625,-0.1655,0.0355,0.129,0.2885,0.103,0.287,0.2725,0.239,0.2015,-0.0985,-0.291,-0.065
0.135,0.199,0.064,-0.167,0.035,0.1315,0.288,0.1035,0.286,0.273,0.2375,0.202,-0.097,-0.2915,-0.0655
0.137,0.203,0.066,-0.17,0.0355,0.1345,0.29,0.108,0.2895,0.2735,0.237,0.2025,-0.097,-0.288,-0.068
0.1375,0.2045,0.0675,-0.1715,0.035,0.136,0.2885,0.1085,0.2915,0.274,0.238,0.203,-0.097,-0.287,-0.0675
0.141,0.2045,0.0635,-0.173,0.0385,0.134,0.2865,0.1075,0.293,0.2745,0.239,0.2045,-0.0965,-0.2855,-0.0675
0.1415,0.204,0.0625,-0.173,0.039,0.133,0.284,0.105,0.293,0.2725,0.238,0.2015,-0.0985,-0.2855,-0.0675
0.14,0.2095,0.0695,-0.175,0.035,0.1395,0.2855,0.1005,0.2895,0.267,0.2365,0.198,-0.101,-0.277,-0.0685
0.1495,0.218,0.0685,-0.184,0.0405,0.1435,0.285,0.1005,0.289,0.2665,0.2365,0.198,-0.1015,-0.271,-0.069
0.156,0.2205,0.0645,-0.1885,0.0455,0.1425,0.2775,0.1,0.2875,0.2665,0.237,0.2,-0.1005,-0.278,-0.067
0.155,0.216,0.061,-0.186,0.0465,0.1385,0.2815,0.103,0.2885,0.27,0.239,0.202,-0.1,-0.2815,-0.0665
0.159,0.218,0.059,-0.1885,0.0495,0.1385,0.2945,0.11,0.2965,0.277,0.2435,0.207,-0.1005,-0.2845,-0.0675
0.1585,0.2185,0.06,-0.189,0.049,0.1395,0.293,0.1085,0.296,0.2765,0.2435,0.2095,-0.1005,-0.2915,-0.0655
0.152,0.21,0.058,-0.181,0.0465,0.134,0.295,0.1115,0.296,0.279,0.2435,0.2095,-0.1005,-0.2955,-0.0635
0.1465,0.2055,0.059,-0.1765,0.0435,0.1325,0.296,0.114,0.2985,0.279,0.245,0.209,-0.102,-0.297,-0.065
0.1475,0.2085,0.061,-0.1785,0.043,0.135,0.292,0.111,0.298,0.2805,0.2425,0.208,-0.1005,-0.2945,-0.0685
0.143,0.203,0.06,-0.173,0.041,0.1315,0.2975,0.1125,0.298,0.2815,0.242,0.2065,-0.1015,-0.2935,-0.0685
0.1375,0.194,0.0565,-0.166,0.04,0.1255,0.2945,0.1145,0.2995,0.283,0.2445,0.2095,-0.1015,-0.3015,-0.0665
0.133,0.1915,0.0585,-0.1625,0.037,0.1255,0.298,0.1195,0.3065,0.2925,0.2505,0.2155,-0.1005,-0.3035,-0.066
0.1285,0.189,0.061,-0.159,0.0335,0.125,0.302,0.12,0.304,0.2915,0.2505,0.2145,-0.1015,-0.3025,-0.0665
0.1355,0.1935,0.058,-0.165,0.0385,0.126,0.292,0.1125,0.2975,0.2855,0.246,0.21,-0.102,-0.3055,-0.0655
0.1405,0.198,0.057,-0.1695,0.0415,0.1275,0.2935,0.1125,0.2955,0.2815,0.242,0.2065,-0.1035,-0.2975,-0.065
0.156,0.202,0.0455,-0.179,0.055,0.1235,0.29,0.1095,0.294,0.281,0.2425,0.2045,-0.1005,-0.292,-0.068
0.1655,0.207,0.042,-0.1865,0.0615,0.1245,0.2865,0.1055,0.289,0.277,0.239,0.2015,-0.102,-0.295,-0.07
0.1525,0.2035,0.0505,-0.1785,0.051,0.127,0.2865,0.104,0.286,0.2725,0.2365,0.201,-0.104,-0.294,-0.0685
0.1445,0.1965,0.052,-0.1705,0.046,0.124,0.2875,0.1055,0.288,0.276,0.241,0.204,-0.1025,-0.293,-0.067
0.1455,0.199,0.0535,-0.1725,0.046,0.126,0.2885,0.1055,0.2865,0.2725,0.241,0.2015,-0.105,-0.289,-0.0665
0.1515,0.2055,0.054,-0.1785,0.049,0.1295,0.2845,0.1025,0.286,0.271,0.2405,0.199,-0.1035,-0.285,-0.0675
0.1555,0.2095,0.054,-0.1825,0.0505,0.1315,0.2845,0.1055,0.289,0.2725,0.241,0.199,-0.1,-0.283,-0.0685
0.1605,0.214,0.0535,-0.1875,0.053,0.134,0.284,0.106,0.2895,0.27,0.24,0.2005,-0.1025,-0.282,-0.0665
0.162,0.214,0.052,-0.1885,0.0545,0.133,0.288,0.107,0.292,0.2735,0.243,0.2045,-0.1035,-0.287,-0.0635
0.163,0.212,0.049,-0.1875,0.057,0.1305,0.2905,0.111,0.295,0.279,0.244,0.207,-0.1025,-0.2935,-0.064
0.1655,0.212,0.0465,-0.1885,0.0595,0.129,0.291,0.113,0.2955,0.281,0.2475,0.211,-0.1,-0.299,-0.0645
0.165,0.2115,0.046,-0.1885,0.059,0.129,0.2955,0.116,0.296,0.282,0.2485,0.2125,-0.1005,-0.298,-0.065
0.1635,0.209,0.0455,-0.1865,0.059,0.127,0.2945,0.1115,0.292,0.28,0.245,0.209,-0.102,-0.2985,-0.063
0.1595,0.2075,0.0485,-0.184,0.055,0.128,0.292,0.11,0.2915,0.2795,0.247,0.2115,-0.0995,-0.3005,-0.063
0.1525,0.2025,0.05,-0.1775,0.051,0.126,0.293,0.118,0.294,0.284,0.249,0.213,-0.1005,-0.301,-0.067
0.148,0.1965,0.048,-0.1725,0.05,0.1225,0.295,0.1165,0.2955,0.287,0.252,0.216,-0.0995,-0.3065,-0.0655
0.147,0.1925,0.0455,-0.17,0.0505,0.119,0.2965,0.118,0.2975,0.29,0.254,0.2195,-0.0955,-0.3125,-0.0665
0.1415,0.1865,0.0455,-0.164,0.048,0.116,0.2975,0.1175,0.2955,0.2875,0.252,0.214,-0.098,-0.309,-0.0685
0.137,0.1875,0.0505,-0.1625,0.0425,0.119,0.297,0.1115,0.2925,0.284,0.252,0.212,-0.0985,-0.301,-0.069
0.1395,0.189,0.049,-0.1645,0.045,0.119,0.293,0.107,0.29,0.278,0.2475,0.2085,-0.0995,-0.302,-0.068
0.147,0.192,0.045,-0.17,0.0505,0.1185,0.2885,0.1055,0.2875,0.2715,0.241,0.2035,-0.101,-0.303,-0.0645
0.1415,0.1945,0.053,-0.168,0.044,0.124,0.288,0.105,0.288,0.2725,0.2415,0.2035,-0.1015,-0.2965,-0.0665
0.1365,0.1945,0.0585,-0.1655,0.0385,0.1265,0.288,0.103,0.2875,0.271,0.2415,0.203,-0.103,-0.2905,-0.0675
0.1405,0.1975,0.057,-0.1695,0.0415,0.127,0.2895,0.105,0.289,0.273,0.242,0.2055,-0.1005,-0.289,-0.0655
0.1425,0.1995,0.0565,-0.171,0.0425,0.128,0.288,0.1025,0.2885,0.271,0.242,0.2035,-0.101,-0.2895,-0.0635
0.1485,0.2065,0.0575,-0.1775,0.045,0.132,0.288,0.102,0.2865,0.268,0.241,0.201,-0.1025,-0.287,-0.064
0.153,0.213,0.06,-0.1835,0.046,0.137,0.29,0.1005,0.286,0.2675,0.2415,0.201,-0.102,-0.284,-0.065
0.156,0.2195,0.0635,-0.188,0.046,0.1415,0.2895,0.1025,0.2885,0.269,0.2435,0.203,-0.101,-0.2825,-0.0655
0.157,0.221,0.064,-0.189,0.046,0.1425,0.2915,0.1065,0.292,0.2735,0.247,0.207,-0.1005,-0.2865,-0.0645
0.157,0.2165,0.06,-0.187,0.048,0.1385,0.291,0.107,0.295,0.276,0.245,0.2075,-0.0995,-0.2945,-0.0635
0.155,0.2125,0.0575,-0.184,0.0485,0.135,0.296,0.11,0.297,0.279,0.247,0.209,-0.0985,-0.2935,-0.0625
0.1515,0.206,0.0545,-0.1785,0.048,0.13,0.294,0.1065,0.293,0.276,0.2435,0.2075,-0.0995,-0.2965,-0.06
0.1535,0.204,0.0505,-0.179,0.0515,0.127,0.292,0.103,0.2885,0.274,0.2405,0.2035,-0.0995,-0.299,-0.0605
0.1525,0.2025,0.0495,-0.1775,0.0515,0.126,0.295,0.1045,0.2885,0.274,0.242,0.205,-0.0975,-0.2965,-0.059
0.1475,0.199,0.0515,-0.1735,0.048,0.1255,0.2955,0.11,0.294,0.2795,0.245,0.209,-0.096,-0.301,-0.0595
0.143,0.1885,0.046,-0.166,0.0485,0.117,0.2945,0.109,0.293,0.285,0.2485,0.212,-0.0965,-0.31,-0.0625
0.14,0.1785,0.039,-0.1595,0.0505,0.109,0.293,0.1075,0.292,0.286,0.2465,0.2125,-0.0955,-0.317,-0.059
0.1295,0.1775,0.048,-0.154,0.0405,0.113,0.3,0.114,0.2945,0.285,0.2435,0.209,-0.0995,-0.3095,-0.06
0.124,0.179,0.055,-0.152,0.034,0.117,0.299,0.104,0.2875,0.275,0.237,0.2025,-0.104,-0.3025,-0.061
0.1315,0.1875,0.056,-0.16,0.0375,0.122,0.292,0.095,0.284,0.2725,0.237,0.2,-0.101,-0.3,-0.059
0.1345,0.1905,0.0555,-0.1625,0.0395,0.123,0.291,0.1025,0.2865,0.2765,0.2395,0.201,-0.099,-0.3015,-0.0615
0.1355,0.1885,0.053,-0.1625,0.041,0.121,0.29,0.1025,0.2865,0.276,0.2395,0.2,-0.0995,-0.302,-0.0605
0.133,0.19,0.057,-0.1615,0.0375,0.1235,0.2925,0.1025,0.2875,0.2765,0.2415,0.201,-0.1005,-0.3005,-0.061
0.129,0.188,0.059,-0.159,0.035,0.1235,0.2905,0.1025,0.287,0.2755,0.242,0.2025,-0.1,-0.2995,-0.0615
0.132,0.19,0.0575,-0.1615,0.037,0.124,0.2885,0.098,0.2845,0.271,0.2415,0.1995,-0.101,-0.2945,-0.0605
0.1375,0.196,0.0585,-0.167,0.0395,0.1275,0.288,0.095,0.2825,0.2645,0.238,0.196,-0.1005,-0.2895,-0.06
0.1425,0.2025,0.06,-0.1725,0.041,0.1315,0.285,0.091,0.2805,0.2605,0.236,0.195,-0.099,-0.2855,-0.0595
0.144,0.2015,0.0575,-0.173,0.043,0.1295,0.2845,0.0935,0.283,0.2635,0.238,0.195,-0.101,-0.292,-0.0605
0.14,0.1955,0.0555,-0.168,0.042,0.1255,0.2895,0.098,0.2865,0.2685,0.2405,0.199,-0.102,-0.297,-0.061
0.1405,0.192,0.0515,-0.1665,0.044,0.122,0.294,0.1,0.2905,0.2735,0.2445,0.203,-0.103,-0.3035,-0.061
0.143,0.194,0.051,-0.1685,0.0455,0.1225,0.295,0.1085,0.295,0.278,0.247,0.204,-0.1,-0.306,-0.062
0.1375,0.1925,0.0545,-0.165,0.041,0.1235,0.298,0.1105,0.2945,0.279,0.247,0.2065,-0.098,-0.3015,-0.0615
0.1375,0.187,0.05,-0.1625,0.0435,0.1185,0.299,0.101,0.287,0.2735,0.2415,0.2045,-0.1015,-0.3075,-0.058
0.1395,0.1915,0.052,-0.1655,0.0435,0.1215,0.2995,0.1055,0.287,0.2765,0.243,0.2065,-0.1015,-0.3095,-0.06
0.138,0.1905,0.053,-0.1645,0.042,0.122,0.2985,0.1105,0.292,0.285,0.249,0.212,-0.1005,-0.31,-0.0615
0.1365,0.184,0.0475,-0.1605,0.0445,0.116,0.3005,0.11,0.291,0.286,0.2495,0.2135,-0.101,-0.3175,-0.0615
0.126,0.1735,0.0475,-0.15,0.039,0.1105,0.3015,0.1125,0.2925,0.2885,0.2475,0.2145,-0.1005,-0.32,-0.061
0.1155,0.165,0.0495,-0.1405,0.0325,0.1075,0.2995,0.112,0.292,0.2875,0.2445,0.2115,-0.102,-0.316,-0.06
0.119,0.168,0.049,-0.1435,0.0345,0.1085,0.297,0.1095,0.2915,0.2835,0.243,0.208,-0.103,-0.3105,-0.0625
0.1225,0.174,0.051,-0.1485,0.0355,0.1125,0.295,0.1055,0.289,0.2815,0.24,0.206,-0.104,-0.3065,-0.062
0.133,0.1785,0.0455,-0.156,0.0435,0.112,0.295,0.104,0.2845,0.2775,0.2385,0.2025,-0.1045,-0.307,-0.062
0.1415,0.182,0.0405,-0.162,0.0505,0.1115,0.2905,0.1005,0.2835,0.275,0.2365,0.1995,-0.105,-0.3025,-0.0615
0.138,0.183,0.045,-0.161,0.0465,0.114,0.291,0.0995,0.285,0.278,0.242,0.202,-0.104,-0.3,-0.0625
0.137,0.183,0.0465,-0.1605,0.045,0.1145,0.295,0.105,0.289,0.279,0.246,0.203,-0.103,-0.301,-0.061
0.141,0.188,0.047,-0.1645,0.0465,0.1175,0.293,0.1035,0.2875,0.274,0.24,0.1995,-0.104,-0.2985,-0.061
0.142,0.194,0.0515,-0.1685,0.045,0.1225,0.292,0.1,0.285,0.269,0.24,0.1975,-0.104,-0.2945,-0.0615
0.143,0.199,0.0555,-0.171,0.0435,0.127,0.2895,0.097,0.282,0.2635,0.238,0.1935,-0.1075,-0.285,-0.061
0.1495,0.204,0.0545,-0.177,0.047,0.1295,0.2905,0.096,0.284,0.267,0.24,0.1965,-0.1065,-0.285,-0.0625
0.1575,0.2085,0.0515,-0.183,0.0525,0.13,0.295,0.1005,0.2905,0.277,0.2475,0.205,-0.103,-0.2965,-0.062
0.1595,0.2075,0.048,-0.184,0.0555,0.128,0.3,0.1045,0.2935,0.2805,0.251,0.2085,-0.103,-0.2985,-0.0625
0.1535,0.203,0.0495,-0.1785,0.0515,0.126,0.301,0.1055,0.294,0.282,0.2535,0.2105,-0.1025,-0.2995,-0.062
0.154,0.199,0.045,-0.1765,0.0545,0.122,0.2985,0.106,0.292,0.281,0.2505,0.209,-0.1035,-0.3045,-0.0615
0.155,0.2005,0.0455,-0.178,0.0545,0.123,0.303,0.1105,0.2955,0.282,0.2515,0.208,-0.1045,-0.303,-0.062
0.153,0.206,0.053,-0.18,0.05,0.1295,0.304,0.1135,0.298,0.2855,0.2555,0.2115,-0.104,-0.3025,-0.0625
0.1555,0.2045,0.049,-0.18,0.053,0.127,0.304,0.113,0.295,0.285,0.256,0.214,-0.1035,-0.306,-0.061
0.152,0.194,0.042,-0.173,0.055,0.1175,0.3055,0.115,0.2965,0.2895,0.257,0.216,-0.1015,-0.317,-0.06
0.151,0.1885,0.0375,-0.17,0.0565,0.113,0.309,0.116,0.2975,0.2925,0.2575,0.216,-0.102,-0.3225,-0.061
0.149,0.1905,0.0415,-0.17,0.0535,0.116,0.309,0.1165,0.297,0.2905,0.2575,0.2165,-0.102,-0.3165,-0.0605
0.15,0.1935,0.0435,-0.172,0.053,0.1185,0.305,0.1135,0.295,0.287,0.254,0.2135,-0.102,-0.314,-0.06
0.1525,0.1985,0.0455,-0.1755,0.053,0.122,0.306,0.1125,0.2935,0.2835,0.2515,0.211,-0.1025,-0.3105,-0.0615
0.1545,0.2005,0.046,-0.1775,0.054,0.123,0.3055,0.11,0.2915,0.282,0.249,0.2095,-0.1025,-0.3085,-0.062
0.156,0.2035,0.0475,-0.18,0.054,0.1255,0.299,0.104,0.2905,0.2815,0.2475,0.2075,-0.1035,-0.3025,-0.0625
0.1525,0.2045,0.0525,-0.179,0.05,0.1285,0.2975,0.106,0.29,0.2815,0.248,0.207,-0.103,-0.298,-0.064
0.1485,0.2035,0.0545,-0.176,0.047,0.129,0.302,0.105,0.286,0.2785,0.247,0.206,-0.103,-0.2985,-0.064
0.151,0.2045,0.0535,-0.1775,0.0485,0.129,0.301,0.1045,0.286,0.277,0.248,0.2025,-0.1025,-0.2935,-0.0645
0.1575,0.2095,0.052,-0.184,0.0525,0.131,0.2975,0.102,0.284,0.2725,0.243,0.1965,-0.104,-0.29,-0.063
0.159,0.2175,0.0585,-0.1885,0.05,0.138,0.2945,0.101,0.284,0.272,0.2445,0.199,-0.104,-0.2895,-0.0635
0.165,0.218,0.053,-0.1915,0.056,0.1355,0.2945,0.1025,0.286,0.275,0.247,0.1995,-0.104,-0.298,-0.0645
0.1645,0.2155,0.051,-0.1905,0.0565,0.133,0.297,0.102,0.286,0.275,0.2465,0.2005,-0.107,-0.298,-0.0625
0.159,0.214,0.0555,-0.1865,0.0515,0.135,0.298,0.1085,0.2895,0.2775,0.2485,0.205,-0.105,-0.293,-0.0625
0.1595,0.211,0.0515,-0.1855,0.054,0.131,0.299,0.1085,0.2895,0.2775,0.2475,0.2055,-0.104,-0.3005,-0.06
0.157,0.2065,0.0505,-0.182,0.053,0.1285,0.3025,0.111,0.294,0.282,0.251,0.209,-0.1035,-0.306,-0.061
0.1615,0.207,0.0455,-0.1845,0.0575,0.1265,0.3005,0.1095,0.2915,0.282,0.2495,0.2085,-0.1025,-0.3075,-0.0615
0.164,0.211,0.047,-0.1875,0.0585,0.129,0.299,0.1055,0.2895,0.2815,0.2485,0.209,-0.1015,-0.306,-0.061
0.1585,0.21,0.0515,-0.1845,0.0535,0.1305,0.304,0.115,0.296,0.29,0.2545,0.2145,-0.099,-0.3095,-0.0635
0.1555,0.206,0.0505,-0.181,0.0525,0.1285,0.309,0.119,0.2975,0.296,0.26,0.2175,-0.1,-0.3125,-0.065
0.153,0.1985,0.0455,-0.176,0.0535,0.122,0.3085,0.1165,0.2935,0.2945,0.256,0.216,-0.101,-0.317,-0.0635
0.1515,0.196,0.0445,-0.174,0.053,0.12,0.3055,0.1145,0.2915,0.2895,0.251,0.2115,-0.1015,-0.313,-0.061
0.1515,0.2025,0.051,-0.1775,0.05,0.127,0.3055,0.114,0.2925,0.289,0.253,0.2095,-0.1015,-0.3035,-0.0625
0.1505,0.205,0.055,-0.178,0.0475,0.13,0.302,0.113,0.2925,0.291,0.2545,0.2105,-0.0985,-0.3015,-0.0635
0.1505,0.2045,0.054,-0.1775,0.048,0.129,0.2995,0.1085,0.2895,0.2865,0.251,0.2055,-0.101,-0.3025,-0.063
0.152,0.208,0.0555,-0.1805,0.048,0.132,0.297,0.103,0.2825,0.28,0.246,0.2025,-0.1015,-0.3035,-0.063
0.152,0.211,0.059,-0.1815,0.046,0.135,0.296,0.101,0.28,0.2775,0.245,0.202,-0.1005,-0.299,-0.0625
0.1525,0.2105,0.058,-0.1815,0.047,0.134,0.295,0.102,0.28,0.276,0.2445,0.2025,-0.1015,-0.2985,-0.0625
0.151,0.2125,0.062,-0.1825,0.0445,0.1375,0.291,0.0995,0.2795,0.2735,0.2435,0.201,-0.102,-0.2905,-0.063
0.1505,0.217,0.0665,-0.184,0.042,0.142,0.294,0.0975,0.277,0.2715,0.242,0.197,-0.1045,-0.2825,-0.0635
0.1605,0.2235,0.0625,-0.192,0.049,0.143,0.292,0.097,0.276,0.2705,0.2415,0.1965,-0.102,-0.2875,-0.063
0.1655,0.227,0.0615,-0.1965,0.0515,0.1445,0.2895,0.0985,0.2795,0.274,0.244,0.197,-0.102,-0.287,-0.065
0.16,0.22,0.06,-0.1905,0.0495,0.1405,0.294,0.101,0.2805,0.277,0.2465,0.201,-0.105,-0.289,-0.064
0.1585,0.2135,0.055,-0.186,0.0515,0.134,0.2965,0.1025,0.2795,0.2765,0.2445,0.203,-0.1045,-0.297,-0.061
0.157,0.211,0.054,-0.1845,0.0515,0.1325,0.2965,0.103,0.28,0.277,0.244,0.201,-0.1055,-0.2985,-0.061
0.155,0.2055,0.051,-0.1805,0.0515,0.1285,0.295,0.101,0.28,0.276,0.244,0.2005,-0.105,-0.2995,-0.0605
0.155,0.206,0.051,-0.1805,0.0515,0.1285,0.2945,0.101,0.28,0.275,0.2425,0.201,-0.105,-0.301,-0.059
0.1585,0.212,0.054,-0.1855,0.052,0.133,0.294,0.103,0.283,0.2795,0.246,0.203,-0.1035,-0.302,-0.0605
0.1595,0.2095,0.0505,-0.185,0.0545,0.13,0.298,0.105,0.2865,0.284,0.2475,0.2075,-0.1025,-0.3045,-0.064
0.151,0.199,0.048,-0.1755,0.0515,0.1235,0.302,0.1045,0.285,0.283,0.245,0.209,-0.105,-0.3085,-0.0625
0.1455,0.191,0.046,-0.1685,0.0495,0.1185,0.301,0.107,0.2875,0.286,0.2465,0.2105,-0.105,-0.3085,-0.06
0.145,0.191,0.0465,-0.1685,0.049,0.1185,0.301,0.107,0.287,0.2855,0.246,0.21,-0.105,-0.307,-0.0615
0.1435,0.1935,0.05,-0.1685,0.0465,0.1215,0.3005,0.1015,0.281,0.277,0.24,0.203,-0.107,-0.3035,-0.063
0.146,0.195,0.049,-0.171,0.0485,0.122,0.295,0.098,0.2795,0.274,0.2395,0.1995,-0.107,-0.3005,-0.063
0.146,0.197,0.051,-0.1715,0.047,0.124,0.294,0.0975,0.281,0.2765,0.2435,0.2015,-0.1065,-0.2995,-0.0645
0.1435,0.2,0.0565,-0.172,0.0435,0.128,0.2955,0.099,0.2825,0.2775,0.242,0.202,-0.1065,-0.2945,-0.0665
0.145,0.1995,0.0545,-0.1725,0.045,0.127,0.2935,0.097,0.279,0.2725,0.2395,0.1995,-0.107,-0.297,-0.066
0.147,0.195,0.048,-0.1715,0.0495,0.1215,0.2905,0.0945,0.273,0.266,0.237,0.1955,-0.1085,-0.3005,-0.063
0.152,0.2025,0.0505,-0.1775,0.0505,0.1265,0.29,0.0935,0.2765,0.267,0.238,0.195,-0.1065,-0.293,-0.063
0.156,0.2095,0.0535,-0.183,0.051,0.1315,0.288,0.0905,0.277,0.266,0.2375,0.194,-0.106,-0.288,-0.063
0.1655,0.215,0.0495,-0.1905,0.0575,0.132,0.2875,0.09,0.2755,0.263,0.2345,0.1925,-0.1055,-0.286,-0.0605
0.1695,0.2195,0.05,-0.1945,0.0595,0.1345,0.2905,0.093,0.279,0.2675,0.239,0.198,-0.103,-0.285,-0.061
0.172,0.2195,0.048,-0.196,0.0615,0.134,0.294,0.0955,0.2795,0.27,0.2415,0.201,-0.1035,-0.2905,-0.0605
0.172,0.2145,0.043,-0.1935,0.0645,0.129,0.298,0.0975,0.28,0.272,0.242,0.2015,-0.1055,-0.2975,-0.0605
0.1655,0.2065,0.041,-0.186,0.062,0.1235,0.2975,0.099,0.28,0.2715,0.2415,0.2005,-0.1055,-0.299,-0.061
0.1675,0.2055,0.038,-0.187,0.0645,0.122,0.2945,0.0985,0.279,0.272,0.2425,0.201,-0.104,-0.301,-0.06
0.1665,0.2045,0.0375,-0.1855,0.0645,0.121,0.2915,0.0965,0.2765,0.2715,0.24,0.2005,-0.1055,-0.3035,-0.059
0.166,0.207,0.0415,-0.1865,0.062,0.124,0.299,0.0975,0.277,0.2695,0.239,0.201,-0.1075,-0.302,-0.06
0.1675,0.2065,0.039,-0.187,0.064,0.123,0.301,0.1015,0.2795,0.2755,0.2425,0.2055,-0.1055,-0.306,-0.0615
0.1675,0.202,0.0345,-0.185,0.0665,0.118,0.3015,0.107,0.2805,0.2815,0.244,0.2085,-0.1045,-0.312,-0.0615
0.1625,0.1945,0.032,-0.179,0.065,0.1135,0.297,0.104,0.2805,0.2805,0.241,0.2065,-0.1055,-0.318,-0.0585
0.1575,0.191,0.034,-0.1745,0.0615,0.1125,0.297,0.1035,0.28,0.2805,0.24,0.205,-0.1055,-0.314,-0.0595
0.16,0.199,0.039,-0.1795,0.06,0.119,0.3095,0.1055,0.2815,0.28,0.2415,0.2045,-0.1045,-0.303,-0.062
0.1645,0.2035,0.039,-0.184,0.0625,0.121,0.301,0.0975,0.2755,0.274,0.236,0.199,-0.1065,-0.3025,-0.061
0.1695,0.207,0.0375,-0.1885,0.066,0.1225,0.2985,0.0945,0.272,0.2705,0.234,0.197,-0.1095,-0.303,-0.0605
0.1735,0.2155,0.0425,-0.195,0.065,0.129,0.302,0.099,0.277,0.2725,0.2365,0.1985,-0.108,-0.3,-0.0635
0.176,0.2165,0.041,-0.1965,0.0675,0.129,0.2995,0.1025,0.279,0.2735,0.238,0.199,-0.106,-0.302,-0.0645
0.174,0.2125,0.0385,-0.1935,0.0675,0.1255,0.3,0.098,0.2775,0.2705,0.237,0.1975,-0.107,-0.3025,-0.061
0.172,0.2165,0.0445,-0.1945,0.0635,0.1305,0.2985,0.096,0.2765,0.269,0.236,0.196,-0.1065,-0.295,-0.062
0.176,0.223,0.047,-0.2,0.0645,0.135,0.294,0.0925,0.274,0.265,0.235,0.194,-0.105,-0.292,-0.0625
0.1775,0.2245,0.047,-0.2015,0.065,0.1355,0.2905,0.0875,0.2715,0.26,0.23,0.1905,-0.107,-0.2915,-0.0615
0.182,0.2255,0.0435,-0.204,0.069,0.1345,0.292,0.0915,0.2735,0.2635,0.2325,0.1905,-0.108,-0.2895,-0.062
0.1815,0.228,0.0465,-0.205,0.0675,0.137,0.295,0.0965,0.279,0.272,0.2405,0.198,-0.105,-0.2905,-0.059
0.169,0.2195,0.0505,-0.1945,0.059,0.135,0.302,0.1015,0.2795,0.275,0.24,0.2025,-0.1055,-0.2975,-0.059
0.172,0.2145,0.042,-0.1935,0.065,0.1285,0.2985,0.1,0.2765,0.272,0.236,0.199,-0.1065,-0.302,-0.0615
0.176,0.2155,0.0395,-0.1965,0.068,0.128,0.2985,0.1,0.2775,0.2745,0.238,0.2005,-0.103,-0.3025,-0.059
0.1795,0.214,0.035,-0.197,0.072,0.1245,0.2985,0.1005,0.2765,0.273,0.238,0.2005,-0.102,-0.3085,-0.06
0.1865,0.2175,0.031,-0.202,0.0775,0.124,0.2935,0.099,0.278,0.276,0.239,0.199,-0.101,-0.3045,-0.0635
0.18,0.213,0.033,-0.1965,0.073,0.123,0.299,0.1025,0.2785,0.2785,0.241,0.203,-0.1005,-0.304,-0.0625
0.1725,0.2025,0.03,-0.1875,0.071,0.116,0.3,0.102,0.275,0.2755,0.237,0.202,-0.1035,-0.313,-0.0605
0.1655,0.1955,0.0295,-0.181,0.068,0.1125,0.3,0.1025,0.275,0.28,0.2375,0.2015,-0.103,-0.3165,-0.06
0.1725,0.1975,0.025,-0.1855,0.0735,0.1115,0.2975,0.101,0.277,0.277,0.2385,0.201,-0.1005,-0.313,-0.06
0.1825,0.205,0.0225,-0.194,0.0795,0.114,0.29,0.099,0.277,0.2755,0.239,0.197,-0.0985,-0.304,-0.0605
0.1775,0.2045,0.027,-0.191,0.075,0.116,0.2885,0.0965,0.274,0.273,0.2365,0.196,-0.0985,-0.3025,-0.0595
0.1725,0.207,0.0345,-0.19,0.069,0.1205,0.291,0.0955,0.274,0.2695,0.2345,0.1955,-0.1005,-0.2985,-0.062
0.1755,0.21,0.0345,-0.193,0.07,0.122,0.2905,0.094,0.27,0.2665,0.2315,0.193,-0.1025,-0.294,-0.0625
0.181,0.2115,0.0305,-0.1965,0.075,0.1205,0.2875,0.091,0.268,0.2645,0.2305,0.1925,-0.1025,-0.2965,-0.0605
0.1785,0.2115,0.033,-0.195,0.0725,0.122,0.2895,0.092,0.2725,0.268,0.234,0.193,-0.104,-0.299,-0.0615
0.1775,0.215,0.0375,-0.1965,0.0695,0.126,0.2895,0.091,0.273,0.265,0.2335,0.1925,-0.104,-0.2955,-0.0625
0.1815,0.2215,0.0405,-0.2015,0.07,0.131,0.2865,0.0885,0.273,0.2635,0.235,0.1915,-0.103,-0.2905,-0.0635
0.186,0.2235,0.038,-0.205,0.074,0.1305,0.2845,0.0845,0.2715,0.2575,0.232,0.1895,-0.1055,-0.2895,-0.062
0.191,0.226,0.0355,-0.209,0.0775,0.1305,0.2845,0.088,0.2705,0.255,0.23,0.19,-0.1045,-0.2935,-0.058
0.186,0.224,0.0385,-0.205,0.0735,0.131,0.287,0.0935,0.275,0.261,0.2335,0.1925,-0.1025,-0.2945,-0.059
0.1825,0.2205,0.0375,-0.2015,0.072,0.129,0.286,0.094,0.2795,0.2655,0.2355,0.196,-0.1005,-0.292,-0.059
0.1795,0.2155,0.037,-0.1975,0.071,0.1265,0.2895,0.094,0.277,0.264,0.235,0.196,-0.101,-0.297,-0.056
0.175,0.2105,0.0355,-0.193,0.0695,0.123,0.2935,0.0955,0.2765,0.2645,0.2355,0.1985,-0.102,-0.304,-0.0585
0.179,0.2095,0.0305,-0.1945,0.074,0.12,0.2895,0.0965,0.276,0.266,0.2365,0.1995,-0.0985,-0.3075,-0.0575
0.18,0.213,0.0335,-0.1965,0.073,0.123,0.2905,0.094,0.273,0.2645,0.2345,0.199,-0.1,-0.307,-0.0575
0.1785,0.2115,0.0335,-0.195,0.072,0.1225,0.2965,0.1005,0.2785,0.2725,0.2385,0.2045,-0.1005,-0.308,-0.0615
0.176,0.204,0.028,-0.1905,0.074,0.116,0.2975,0.107,0.283,0.279,0.2435,0.2065,-0.1,-0.3135,-0.062
0.1735,0.2015,0.028,-0.1875,0.0725,0.1145,0.2985,0.106,0.284,0.2805,0.243,0.2085,-0.1,-0.315,-0.0615
0.1655,0.196,0.031,-0.181,0.067,0.1135,0.3,0.106,0.2805,0.278,0.2395,0.2055,-0.1025,-0.3135,-0.062
0.1615,0.1965,0.035,-0.179,0.063,0.1155,0.2965,0.1,0.2765,0.2705,0.236,0.1995,-0.105,-0.312,-0.062
0.1665,0.2025,0.036,-0.185,0.065,0.119,0.2935,0.098,0.278,0.27,0.237,0.199,-0.1025,-0.306,-0.0625
0.163,0.201,0.0375,-0.182,0.0625,0.119,0.2895,0.094,0.2755,0.2685,0.235,0.196,-0.1045,-0.304,-0.0625
0.164,0.206,0.0415,-0.185,0.061,0.1235,0.292,0.095,0.2775,0.2695,0.236,0.197,-0.104,-0.3025,-0.0615
0.174,0.215,0.041,-0.195,0.0665,0.128,0.2935,0.0985,0.28,0.2715,0.2375,0.199,-0.1035,-0.301,-0.062
0.1765,0.212,0.0355,-0.1945,0.0705,0.124,0.2905,0.097,0.278,0.2695,0.2355,0.197,-0.1045,-0.3045,-0.061
0.1845,0.214,0.0295,-0.1995,0.0775,0.122,0.288,0.0925,0.2755,0.265,0.2325,0.193,-0.104,-0.299,-0.061
0.194,0.2215,0.0275,-0.208,0.083,0.1245,0.2815,0.083,0.269,0.255,0.2255,0.186,-0.106,-0.292,-0.061
0.1925,0.2245,0.032,-0.209,0.08,0.128,0.282,0.084,0.2695,0.2555,0.2275,0.187,-0.106,-0.289,-0.06
0.191,0.226,0.0345,-0.209,0.078,0.1305,0.2855,0.088,0.273,0.2605,0.231,0.189,-0.1055,-0.2935,-0.0615
0.1875,0.222,0.0345,-0.205,0.0765,0.1285,0.2855,0.0885,0.272,0.2615,0.229,0.189,-0.109,-0.298,-0.0615
0.182,0.216,0.034,-0.199,0.074,0.125,0.2865,0.0915,0.2725,0.2645,0.2315,0.192,-0.1105,-0.2985,-0.062
0.1855,0.2175,0.032,-0.2015,0.0765,0.125,0.2885,0.0975,0.279,0.267,0.236,0.1955,-0.1075,-0.301,-0.061
0.1885,0.2175,0.029,-0.2035,0.08,0.123,0.2915,0.0995,0.282,0.269,0.2385,0.197,-0.106,-0.3005,-0.059
0.186,0.215,0.029,-0.2005,0.078,0.122,0.2935,0.0985,0.2795,0.269,0.237,0.198,-0.1085,-0.3005,-0.0605
0.1845,0.215,0.031,-0.2,0.0765,0.123,0.2875,0.096,0.2775,0.269,0.237,0.1975,-0.1085,-0.3025,-0.061
0.1785,0.207,0.029,-0.193,0.0745,0.118,0.2925,0.1005,0.2785,0.2735,0.2375,0.1985,-0.108,-0.3045,-0.062
0.17,0.2,0.0295,-0.1855,0.07,0.1145,0.3,0.105,0.2815,0.2785,0.239,0.2015,-0.109,-0.3115,-0.063
0.1685,0.1945,0.026,-0.182,0.071,0.11,0.2965,0.1045,0.2815,0.28,0.2395,0.203,-0.108,-0.318,-0.0605
0.164,0.191,0.0265,-0.1775,0.0685,0.109,0.297,0.105,0.2795,0.277,0.2365,0.2025,-0.108,-0.315,-0.059
0.167,0.1985,0.031,-0.183,0.0675,0.1145,0.293,0.1015,0.2785,0.275,0.2365,0.2,-0.1075,-0.3095,-0.0585
0.174,0.202,0.0275,-0.188,0.073,0.1145,0.2885,0.099,0.278,0.273,0.234,0.199,-0.1065,-0.31,-0.0575
0.1725,0.2045,0.0315,-0.1885,0.07,0.118,0.2905,0.099,0.2785,0.2755,0.2355,0.2,-0.1065,-0.307,-0.059
0.1695,0.208,0.0385,-0.189,0.0655,0.123,0.2895,0.096,0.278,0.2745,0.2355,0.1975,-0.1085,-0.3005,-0.0615
0.166,0.2035,0.037,-0.185,0.064,0.12,0.289,0.094,0.2755,0.2715,0.2315,0.1935,-0.111,-0.3,-0.061
0.1705,0.203,0.0325,-0.1865,0.0685,0.1175,0.2885,0.095,0.2755,0.27,0.2315,0.1925,-0.1085,-0.2965,-0.06
0.176,0.208,0.032,-0.1925,0.0715,0.12,0.2865,0.093,0.275,0.2665,0.2305,0.1915,-0.107,-0.292,-0.0605
0.176,0.214,0.038,-0.195,0.0685,0.126,0.286,0.093,0.276,0.265,0.231,0.1895,-0.1065,-0.29,-0.062
0.179,0.218,0.039,-0.199,0.0695,0.129,0.285,0.093,0.2755,0.261,0.23,0.188,-0.107,-0.2945,-0.062
0.183,0.219,0.036,-0.2015,0.0735,0.1275,0.286,0.0935,0.275,0.2635,0.2295,0.1885,-0.109,-0.2995,-0.0615
0.182,0.2135,0.0315,-0.198,0.075,0.1225,0.287,0.095,0.275,0.2665,0.2315,0.191,-0.1065,-0.304,-0.0635
0.175,0.203,0.028,-0.189,0.073,0.1155,0.288,0.097,0.277,0.2685,0.235,0.1935,-0.1055,-0.3085,-0.063
0.169,0.198,0.0285,-0.184,0.07,0.113,0.2875,0.095,0.2765,0.267,0.232,0.1925,-0.1075,-0.3065,-0.0605
0.169,0.1965,0.027,-0.183,0.071,0.1115,0.288,0.094,0.275,0.267,0.2305,0.195,-0.107,-0.3075,-0.0605
0.1685,0.1945,0.0255,-0.182,0.0715,0.11,0.2895,0.095,0.2725,0.266,0.231,0.1945,-0.1075,-0.309,-0.0585
0.1725,0.199,0.026,-0.186,0.073,0.1125,0.2865,0.092,0.2725,0.264,0.229,0.1915,-0.109,-0.3085,-0.06
0.175,0.2,0.0245,-0.1875,0.075,0.112,0.289,0.099,0.279,0.2715,0.2325,0.1975,-0.107,-0.311,-0.061
0.1685,0.193,0.0245,-0.181,0.0715,0.109,0.2955,0.103,0.2785,0.2745,0.235,0.2005,-0.1065,-0.3165,-0.061
0.1635,0.188,0.0245,-0.176,0.0695,0.106,0.297,0.099,0.277,0.274,0.2355,0.2005,-0.106,-0.3175,-0.0605
0.1645,0.1865,0.022,-0.1755,0.071,0.1045,0.292,0.097,0.275,0.271,0.232,0.198,-0.105,-0.3115,-0.059
0.1665,0.188,0.0215,-0.1775,0.072,0.105,0.2885,0.094,0.273,0.267,0.2305,0.192,-0.1065,-0.3,-0.063
0.1695,0.1935,0.0235,-0.182,0.073,0.1085,0.288,0.092,0.273,0.267,0.23,0.1905,-0.105,-0.298,-0.0615
0.173,0.199,0.0255,-0.186,0.0735,0.1125,0.286,0.093,0.2705,0.2655,0.2265,0.1895,-0.106,-0.302,-0.06
0.172,0.1985,0.0265,-0.1855,0.0725,0.1125,0.285,0.0905,0.267,0.263,0.2245,0.188,-0.1075,-0.2995,-0.0615
0.1735,0.2005,0.0265,-0.187,0.0735,0.1135,0.2855,0.087,0.267,0.2645,0.226,0.189,-0.1065,-0.295,-0.0605
0.1745,0.2,0.026,-0.1875,0.074,0.113,0.2835,0.0875,0.268,0.2655,0.229,0.1885,-0.1075,-0.2935,-0.0595
0.1685,0.199,0.03,-0.184,0.069,0.1145,0.282,0.086,0.267,0.26,0.227,0.187,-0.109,-0.293,-0.059
0.1765,0.211,0.035,-0.194,0.0705,0.123,0.2795,0.085,0.2665,0.257,0.2265,0.186,-0.1065,-0.2875,-0.0605
0.1865,0.22,0.0335,-0.2035,0.0765,0.127,0.2785,0.0855,0.2665,0.2575,0.228,0.1865,-0.1055,-0.2895,-0.0595
0.189,0.223,0.034,-0.2065,0.0775,0.1285,0.2815,0.0895,0.269,0.26,0.2305,0.1895,-0.107,-0.2895,-0.06
0.1915,0.223,0.0315,-0.2075,0.0795,0.1275,0.2845,0.0925,0.2715,0.2645,0.2315,0.1925,-0.1065,-0.2935,-0.0615
0.187,0.2195,0.0325,-0.2035,0.077,0.126,0.2845,0.0945,0.274,0.269,0.237,0.1975,-0.105,-0.3005,-0.0605
0.183,0.215,0.032,-0.199,0.0755,0.1235,0.2875,0.0975,0.2745,0.269,0.2395,0.1985,-0.106,-0.3,-0.0605
0.1835,0.21,0.0265,-0.197,0.078,0.118,0.2865,0.0955,0.2725,0.266,0.234,0.1945,-0.1085,-0.304,-0.061
0.185,0.2105,0.025,-0.198,0.0795,0.118,0.289,0.0935,0.274,0.2665,0.2325,0.194,-0.109,-0.304,-0.0615
0.1865,0.2125,0.026,-0.1995,0.08,0.1195,0.291,0.0955,0.275,0.2695,0.2345,0.197,-0.108,-0.302,-0.0625
0.182,0.212,0.03,-0.1975,0.0755,0.121,0.2955,0.1015,0.279,0.2755,0.2375,0.2025,-0.106,-0.3045,-0.063
0.1775,0.206,0.0285,-0.192,0.0745,0.117,0.302,0.1055,0.282,0.278,0.238,0.205,-0.105,-0.3115,-0.0615
0.1765,0.2025,0.026,-0.19,0.075,0.114,0.2915,0.102,0.279,0.277,0.239,0.206,-0.1055,-0.3125,-0.0595
0.1735,0.2,0.026,-0.187,0.0735,0.113,0.285,0.0995,0.277,0.276,0.239,0.2035,-0.1055,-0.309,-0.058
0.1685,0.2,0.0315,-0.1845,0.0685,0.116,0.288,0.0965,0.274,0.2705,0.2345,0.1975,-0.1085,-0.303,-0.059
0.168,0.2045,0.036,-0.1865,0.066,0.1205,0.289,0.0995,0.2735,0.2695,0.231,0.1965,-0.109,-0.301,-0.062
0.1685,0.204,0.0355,-0.187,0.0665,0.12,0.286,0.099,0.276,0.271,0.231,0.1975,-0.1065,-0.304,-0.0615
0.1705,0.2085,0.0375,-0.1895,0.0665,0.123,0.2825,0.0935,0.2735,0.269,0.2305,0.197,-0.106,-0.297,-0.0625
0.1695,0.2045,0.035,-0.187,0.067,0.12,0.287,0.0945,0.2715,0.2675,0.228,0.1935,-0.109,-0.2965,-0.063
0.168,0.2,0.0315,-0.1845,0.068,0.116,0.288,0.093,0.2715,0.266,0.228,0.191,-0.111,-0.3005,-0.0645
0.1715,0.205,0.0335,-0.1885,0.0685,0.1195,0.285,0.088,0.2685,0.2615,0.2255,0.1905,-0.1105,-0.295,-0.0635
0.181,0.2135,0.0325,-0.1975,0.074,0.123,0.283,0.087,0.2675,0.258,0.222,0.1875,-0.112,-0.2905,-0.0615
0.189,0.222,0.033,-0.2055,0.0775,0.1275,0.2795,0.0885,0.27,0.259,0.2255,0.1885,-0.1105,-0.2915,-0.0625
0.19,0.2225,0.033,-0.2065,0.078,0.128,0.2835,0.0905,0.2725,0.2625,0.228,0.1915,-0.109,-0.2945,-0.063
0.19,0.2195,0.0295,-0.205,0.0805,0.1245,0.29,0.095,0.2725,0.263,0.2255,0.1925,-0.112,-0.299,-0.0635
0.1845,0.214,0.0295,-0.1995,0.077,0.1215,0.289,0.098,0.2745,0.2675,0.2305,0.1955,-0.111,-0.303,-0.0635
0.185,0.2105,0.026,-0.198,0.0795,0.118,0.2915,0.1,0.279,0.272,0.2335,0.199,-0.109,-0.307,-0.0635
0.187,0.2085,0.0215,-0.198,0.0825,0.115,0.297,0.102,0.2795,0.271,0.2325,0.2005,-0.109,-0.308,-0.062
0.1865,0.208,0.0215,-0.1975,0.082,0.115,0.297,0.1035,0.282,0.2735,0.234,0.2005,-0.1075,-0.3065,-0.059
0.186,0.2115,0.025,-0.199,0.0805,0.118,0.2945,0.1005,0.281,0.2755,0.235,0.2015,-0.1055,-0.305,-0.059
0.1835,0.2085,0.0245,-0.196,0.079,0.1165,0.2965,0.103,0.284,0.2795,0.2375,0.2055,-0.105,-0.31,-0.0595
0.1795,0.2035,0.0245,-0.192,0.0775,0.114,0.303,0.108,0.2865,0.285,0.2375,0.2075,-0.1055,-0.3155,-0.0595
0.1735,0.2,0.0265,-0.187,0.073,0.1135,0.3055,0.109,0.287,0.2855,0.24,0.2115,-0.105,-0.315,-0.059
0.1765,0.199,0.022,-0.188,0.077,0.1105,0.3015,0.107,0.2875,0.2835,0.2375,0.2095,-0.1045,-0.312,-0.058
0.178,0.203,0.025,-0.191,0.0765,0.114,0.2975,0.1,0.28,0.2765,0.233,0.2025,-0.1055,-0.306,-0.06
0.1795,0.205,0.0255,-0.1925,0.077,0.1155,0.294,0.097,0.28,0.2735,0.234,0.201,-0.105,-0.306,-0.06
0.182,0.206,0.024,-0.1945,0.079,0.115,0.2925,0.096,0.2805,0.273,0.2315,0.2,-0.105,-0.303,-0.0585
0.18,0.211,0.0315,-0.1955,0.074,0.121,0.295,0.0985,0.28,0.272,0.2315,0.1995,-0.106,-0.3005,-0.0595
0.182,0.21,0.028,-0.196,0.077,0.1185,0.296,0.102,0.282,0.273,0.2335,0.1985,-0.1045,-0.304,-0.0585
0.183,0.208,0.025,-0.196,0.079,0.1165,0.296,0.103,0.284,0.276,0.2355,0.1995,-0.104,-0.301,-0.061
0.1825,0.2125,0.03,-0.198,0.076,0.121,0.292,0.0995,0.2805,0.272,0.2345,0.199,-0.106,-0.2925,-0.062
0.189,0.2195,0.0305,-0.2045,0.079,0.125,0.2935,0.0945,0.274,0.265,0.232,0.1955,-0.1075,-0.291,-0.061
0.1955,0.227,0.032,-0.2115,0.0815,0.1295,0.293,0.0965,0.2775,0.2695,0.2375,0.1975,-0.1045,-0.288,-0.0625
0.193,0.2235,0.0305,-0.2085,0.0815,0.1265,0.2915,0.099,0.2795,0.272,0.238,0.199,-0.104,-0.293,-0.0635
0.187,0.215,0.0285,-0.201,0.079,0.1215,0.2975,0.1025,0.28,0.2735,0.24,0.201,-0.1065,-0.306,-0.0645
0.185,0.212,0.0275,-0.1985,0.0785,0.1195,0.3025,0.1045,0.281,0.275,0.2395,0.2025,-0.108,-0.307,-0.064
0.182,0.2075,0.026,-0.195,0.0775,0.117,0.305,0.1045,0.283,0.2745,0.239,0.2025,-0.108,-0.3075,-0.0665
0.1845,0.209,0.0245,-0.197,0.08,0.1165,0.3055,0.1095,0.2885,0.2805,0.2455,0.2085,-0.1045,-0.309,-0.068
0.1885,0.213,0.024,-0.201,0.082,0.1185,0.307,0.1105,0.2895,0.2815,0.246,0.209,-0.1035,-0.306,-0.066
0.1815,0.212,0.0305,-0.197,0.075,0.1215,0.306,0.113,0.29,0.2815,0.245,0.208,-0.1055,-0.3035,-0.067
0.1795,0.209,0.0295,-0.194,0.0745,0.119,0.3075,0.1145,0.29,0.284,0.2445,0.211,-0.1055,-0.3075,-0.0665
0.179,0.203,0.024,-0.191,0.077,0.1135,0.313,0.115,0.29,0.288,0.247,0.2125,-0.1055,-0.3175,-0.0665
0.176,0.199,0.0225,-0.1875,0.0765,0.1105,0.3135,0.12,0.2925,0.294,0.248,0.215,-0.104,-0.323,-0.067
0.1705,0.1955,0.0245,-0.1835,0.073,0.11,0.3135,0.119,0.294,0.294,0.2495,0.214,-0.101,-0.32,-0.0675
0.1715,0.196,0.025,-0.184,0.073,0.1105,0.3095,0.1135,0.2865,0.2845,0.2455,0.2075,-0.1035,-0.3115,-0.068
0.1705,0.1995,0.029,-0.185,0.0705,0.114,0.3065,0.112,0.283,0.281,0.2405,0.204,-0.1035,-0.307,-0.0695
0.1655,0.2055,0.0395,-0.1855,0.0625,0.1225,0.3105,0.112,0.2835,0.282,0.2445,0.2055,-0.105,-0.2975,-0.072
0.1655,0.213,0.0475,-0.1895,0.059,0.13,0.306,0.1115,0.2835,0.2805,0.2435,0.204,-0.108,-0.2905,-0.0735
0.1685,0.2195,0.051,-0.194,0.0585,0.1355,0.31,0.1155,0.289,0.286,0.247,0.2085,-0.1045,-0.288,-0.075
0.1775,0.232,0.0545,-0.205,0.061,0.1435,0.3145,0.1205,0.293,0.287,0.251,0.2115,-0.105,-0.2785,-0.0745
0.178,0.243,0.0655,-0.211,0.056,0.1545,0.311,0.119,0.295,0.286,0.2515,0.211,-0.1055,-0.2645,-0.0775
0.1815,0.256,0.0745,-0.219,0.0535,0.1655,0.309,0.114,0.293,0.284,0.254,0.2105,-0.105,-0.247,-0.081
0.187,0.271,0.084,-0.229,0.0515,0.1775,0.3095,0.1135,0.295,0.283,0.257,0.212,-0.104,-0.2355,-0.081
0.19,0.28,0.0905,-0.2355,0.0495,0.1855,0.3115,0.1175,0.2985,0.2885,0.2615,0.2175,-0.1035,-0.2325,-0.0835
0.1945,0.278,0.0835,-0.2365,0.0555,0.181,0.31,0.1195,0.2995,0.293,0.2655,0.221,-0.1015,-0.2385,-0.0825
0.189,0.271,0.082,-0.23,0.053,0.1765,0.3205,0.1265,0.3055,0.2975,0.268,0.2245,-0.098,-0.243,-0.0825
0.1875,0.2725,0.0845,-0.23,0.051,0.1785,0.326,0.134,0.308,0.2985,0.2675,0.2245,-0.099,-0.24,-0.086
0.194,0.27,0.076,-0.232,0.059,0.1725,0.3215,0.1355,0.31,0.2995,0.267,0.2255,-0.096,-0.243,-0.0855
0.1945,0.2705,0.076,-0.2325,0.059,0.173,0.323,0.1375,0.312,0.3015,0.2695,0.2285,-0.094,-0.2425,-0.0875
0.2,0.2715,0.071,-0.2355,0.064,0.171,0.322,0.135,0.3095,0.301,0.2685,0.2275,-0.092,-0.2405,-0.0905
0.199,0.261,0.062,-0.23,0.068,0.1615,0.3265,0.137,0.3095,0.3015,0.2655,0.226,-0.0935,-0.248,-0.0915
0.1855,0.255,0.0695,-0.2205,0.058,0.1625,0.332,0.1435,0.3135,0.3065,0.2675,0.229,-0.097,-0.2515,-0.092
0.179,0.249,0.0705,-0.214,0.054,0.16,0.336,0.146,0.3145,0.309,0.268,0.231,-0.098,-0.2505,-0.092
0.172,0.2485,0.0765,-0.2105,0.0475,0.1625,0.3385,0.149,0.3155,0.306,0.268,0.2285,-0.0995,-0.247,-0.095
0.166,0.249,0.0835,-0.2075,0.041,0.166,0.3375,0.147,0.3145,0.3025,0.2655,0.224,-0.1,-0.242,-0.1005
0.165,0.2525,0.0875,-0.209,0.0385,0.17,0.3425,0.1485,0.3165,0.3005,0.2645,0.2215,-0.1015,-0.2335,-0.1065
0.1655,0.262,0.096,-0.214,0.0345,0.179,0.349,0.158,0.327,0.312,0.2755,0.23,-0.096,-0.2285,-0.1105
0.1715,0.265,0.0935,-0.2185,0.0385,0.1795,0.346,0.161,0.325,0.3115,0.2735,0.229,-0.094,-0.2335,-0.11
0.1825,0.2665,0.084,-0.2245,0.049,0.175,0.3385,0.1565,0.3215,0.3065,0.27,0.224,-0.094,-0.239,-0.1075
0.193,0.2675,0.0745,-0.2305,0.059,0.171,0.335,0.1575,0.327,0.31,0.275,0.2265,-0.089,-0.24,-0.108
0.2025,0.2695,0.067,-0.236,0.067,0.1685,0.333,0.1565,0.3215,0.3035,0.2695,0.2215,-0.0905,-0.236,-0.1095
0.208,0.2745,0.0665,-0.2415,0.0705,0.1705,0.328,0.153,0.321,0.3015,0.2695,0.22,-0.0885,-0.235,-0.11
0.21,0.2835,0.0735,-0.247,0.068,0.1785,0.3265,0.158,0.3265,0.3045,0.274,0.224,-0.086,-0.231,-0.111
0.208,0.2775,0.0695,-0.243,0.069,0.1735,0.321,0.1535,0.324,0.305,0.273,0.2245,-0.086,-0.2375,-0.1085
0.203,0.2665,0.063,-0.235,0.07,0.1645,0.312,0.15,0.3265,0.3075,0.275,0.2265,-0.0845,-0.248,-0.1025
0.2065,0.267,0.0605,-0.237,0.073,0.1635,0.3025,0.142,0.323,0.307,0.2765,0.231,-0.083,-0.251,-0.0935
0.21,0.2685,0.0585,-0.2395,0.0755,0.163,0.2915,0.134,0.32,0.3085,0.2755,0.2315,-0.082,-0.254,-0.0875
0.21,0.2655,0.055,-0.238,0.077,0.16,0.28,0.136,0.323,0.31,0.2765,0.234,-0.081,-0.256,-0.0835
0.216,0.263,0.047,-0.24,0.0845,0.155,0.2675,0.1295,0.3205,0.3105,0.277,0.235,-0.0765,-0.2675,-0.077
0.219,0.267,0.048,-0.243,0.085,0.157,0.2665,0.1295,0.321,0.314,0.279,0.2375,-0.072,-0.266,-0.0745
0.2155,0.2595,0.044,-0.238,0.0855,0.1515,0.2605,0.122,0.315,0.313,0.2765,0.2385,-0.0735,-0.2695,-0.0685
0.2095,0.248,0.0385,-0.229,0.0855,0.1435,0.2565,0.116,0.308,0.311,0.2725,0.2355,-0.077,-0.281,-0.0625
0.2065,0.2485,0.0425,-0.228,0.0815,0.1455,0.2595,0.1215,0.3135,0.316,0.278,0.2405,-0.0745,-0.284,-0.061
0.209,0.2515,0.0425,-0.231,0.0835,0.147,0.255,0.1185,0.3135,0.3155,0.277,0.2405,-0.073,-0.281,-0.0585
0.2135,0.257,0.043,-0.2355,0.085,0.15,0.2475,0.116,0.3105,0.3105,0.2745,0.237,-0.07,-0.2695,-0.057
0.2225,0.2635,0.041,-0.243,0.0905,0.152,0.2425,0.1155,0.3095,0.312,0.277,0.2385,-0.0645,-0.2675,-0.0555
0.2255,0.264,0.038,-0.245,0.0935,0.151,0.241,0.11,0.3055,0.3085,0.2765,0.237,-0.0645,-0.266,-0.055
0.228,0.2695,0.0415,-0.249,0.093,0.1555,0.242,0.116,0.313,0.314,0.2825,0.241,-0.059,-0.2565,-0.0565
0.228,0.276,0.048,-0.2525,0.09,0.162,0.2425,0.12,0.318,0.32,0.287,0.246,-0.055,-0.2525,-0.057
0.231,0.2775,0.0465,-0.255,0.092,0.162,0.2385,0.1145,0.3125,0.314,0.281,0.244,-0.0575,-0.251,-0.055
0.2405,0.2845,0.044,-0.263,0.098,0.164,0.2325,0.111,0.311,0.3135,0.2825,0.2445,-0.055,-0.2455,-0.0525
0.2475,0.297,0.0495,-0.2725,0.099,0.173,0.2285,0.1055,0.31,0.311,0.285,0.2445,-0.052,-0.233,-0.05
0.26,0.3045,0.0445,-0.2825,0.1075,0.1745,0.2235,0.098,0.306,0.3075,0.281,0.2415,-0.0515,-0.2265,-0.0485
0.2645,0.305,0.041,-0.285,0.1115,0.173,0.2225,0.098,0.3065,0.3095,0.2835,0.2445,-0.052,-0.232,-0.047
0.2605,0.3035,0.0425,-0.282,0.109,0.173,0.2285,0.1035,0.3105,0.3145,0.2885,0.25,-0.0555,-0.239,-0.0465
0.2635,0.302,0.0385,-0.283,0.1125,0.17,0.2325,0.1045,0.3105,0.319,0.2905,0.253,-0.0555,-0.2455,-0.045
0.2645,0.301,0.0365,-0.283,0.1135,0.169,0.235,0.1045,0.3105,0.3195,0.2905,0.256,-0.0545,-0.2465,-0.0425
0.2605,0.2985,0.0375,-0.2795,0.1115,0.168,0.2345,0.103,0.3115,0.3225,0.2935,0.2585,-0.0545,-0.246,-0.038
0.2615,0.2995,0.038,-0.2805,0.1115,0.169,0.233,0.1,0.307,0.321,0.2915,0.2575,-0.0555,-0.245,-0.0365
0.2655,0.297,0.0315,-0.281,0.1165,0.164,0.2345,0.099,0.304,0.317,0.2875,0.254,-0.057,-0.2495,-0.039
0.263,0.2905,0.0275,-0.277,0.1175,0.159,0.2395,0.1025,0.308,0.3225,0.2915,0.257,-0.0575,-0.2585,-0.0395
0.2535,0.281,0.0275,-0.2675,0.113,0.154,0.2465,0.1065,0.309,0.3245,0.29,0.2575,-0.06,-0.2645,-0.0415
0.25,0.2705,0.0205,-0.2605,0.1145,0.1455,0.25,0.1095,0.3095,0.324,0.2885,0.257,-0.0585,-0.2755,-0.0415
0.2485,0.265,0.016,-0.257,0.116,0.1405,0.2505,0.112,0.3095,0.324,0.287,0.254,-0.057,-0.277,-0.0435
0.246,0.2585,0.012,-0.2525,0.1165,0.1355,0.2495,0.1035,0.3015,0.3165,0.2795,0.2455,-0.0595,-0.2735,-0.044
0.2445,0.2535,0.009,-0.249,0.1175,0.131,0.2495,0.1005,0.3025,0.315,0.2805,0.244,-0.0595,-0.2805,-0.045
0.2495,0.256,0.0065,-0.253,0.1215,0.131,0.2525,0.1105,0.307,0.3175,0.2815,0.2445,-0.0575,-0.2865,-0.0485
0.2515,0.26,0.0085,-0.256,0.1215,0.134,0.253,0.106,0.3065,0.3165,0.2805,0.2435,-0.058,-0.287,-0.048
0.2535,0.258,0.0045,-0.256,0.1245,0.1315,0.2545,0.105,0.308,0.316,0.283,0.244,-0.0585,-0.287,-0.0475
0.2665,0.2615,-0.005,-0.2645,0.1355,0.128,0.2495,0.104,0.308,0.314,0.2825,0.245,-0.056,-0.288,-0.0435
0.267,0.267,0.0,-0.267,0.1335,0.1335,0.245,0.0925,0.3025,0.307,0.277,0.241,-0.059,-0.2865,-0.041
0.2645,0.2645,0.0,-0.265,0.132,0.1325,0.249,0.0915,0.2975,0.2995,0.271,0.2345,-0.063,-0.2875,-0.041
0.2685,0.263,-0.0055,-0.266,0.137,0.1285,0.248,0.0925,0.298,0.3,0.273,0.234,-0.0635,-0.292,-0.043
0.2715,0.2615,-0.01,-0.2665,0.1405,0.1255,0.2515,0.1005,0.3025,0.3035,0.2755,0.237,-0.0625,-0.297,-0.047
0.2675,0.2515,-0.016,-0.2595,0.1415,0.118,0.2585,0.1035,0.304,0.3065,0.2765,0.239,-0.0625,-0.308,-0.0475
0.264,0.247,-0.017,-0.256,0.1405,0.115,0.2625,0.1055,0.3055,0.31,0.2785,0.2395,-0.0635,-0.3135,-0.047
0.2625,0.244,-0.018,-0.2535,0.14,0.113,0.264,0.1065,0.304,0.3085,0.277,0.2375,-0.0645,-0.3115,-0.0455
0.254,0.235,-0.019,-0.2445,0.1365,0.108,0.262,0.1035,0.3025,0.3065,0.2765,0.238,-0.066,-0.3125,-0.0465
0.2495,0.2325,-0.0175,-0.2415,0.133,0.1075,0.2625,0.1085,0.3055,0.309,0.277,0.2395,-0.065,-0.3095,-0.0505
0.2485,0.2355,-0.0135,-0.242,0.131,0.1105,0.2635,0.1075,0.305,0.3125,0.2775,0.2405,-0.0615,-0.303,-0.053
0.244,0.2335,-0.011,-0.239,0.127,0.111,0.261,0.1065,0.3045,0.313,0.277,0.2425,-0.0615,-0.3005,-0.05
0.237,0.221,-0.016,-0.229,0.126,0.1025,0.261,0.104,0.301,0.314,0.274,0.242,-0.064,-0.311,-0.0465
0.236,0.2195,-0.0165,-0.228,0.126,0.1015,0.261,0.104,0.3025,0.319,0.2775,0.247,-0.06,-0.312,-0.047
0.239,0.2205,-0.0185,-0.23,0.1285,0.101,0.26,0.1055,0.3045,0.32,0.2795,0.2475,-0.0565,-0.306,-0.0485
0.2375,0.222,-0.0155,-0.23,0.1265,0.103,0.2565,0.102,0.303,0.3145,0.2745,0.2405,-0.059,-0.302,-0.053
0.2355,0.2305,-0.005,-0.233,0.1195,0.113,0.2545,0.1025,0.3085,0.3165,0.276,0.2395,-0.0585,-0.294,-0.055
0.2345,0.229,-0.0055,-0.232,0.1195,0.112,0.2555,0.1025,0.3085,0.3185,0.2775,0.2405,-0.058,-0.295,-0.057
0.236,0.2305,-0.0055,-0.2335,0.1205,0.112,0.2585,0.103,0.309,0.317,0.2765,0.2395,-0.0585,-0.2965,-0.0595
0.2355,0.225,-0.0105,-0.23,0.1225,0.107,0.261,0.1015,0.3065,0.313,0.2735,0.237,-0.0595,-0.3035,-0.0585
0.2355,0.2215,-0.014,-0.2285,0.1245,0.1035,0.258,0.0985,0.304,0.309,0.27,0.2345,-0.061,-0.3075,-0.0555
0.233,0.2265,-0.0065,-0.2305,0.12,0.11,0.263,0.0995,0.303,0.305,0.268,0.231,-0.0645,-0.304,-0.057
0.228,0.229,0.001,-0.229,0.1135,0.115,0.2645,0.0945,0.296,0.2955,0.259,0.2225,-0.072,-0.299,-0.0595
0.2255,0.234,0.008,-0.23,0.1085,0.121,0.269,0.096,0.295,0.2905,0.2535,0.2165,-0.079,-0.297,-0.06
0.217,0.231,0.014,-0.2245,0.1015,0.1225,0.279,0.1,0.295,0.2885,0.2505,0.2145,-0.0865,-0.303,-0.0585
0.2115,0.2245,0.0125,-0.2185,0.0995,0.1185,0.2835,0.1015,0.2925,0.2895,0.2475,0.2155,-0.0895,-0.3095,-0.0555
0.2025,0.2175,0.015,-0.2105,0.0935,0.1165,0.287,0.1025,0.293,0.29,0.248,0.215,-0.094,-0.3135,-0.055
0.197,0.2125,0.0155,-0.205,0.0905,0.114,0.288,0.099,0.289,0.2855,0.245,0.2115,-0.0985,-0.3165,-0.0535
0.195,0.208,0.013,-0.2015,0.091,0.1105,0.288,0.096,0.2825,0.2805,0.2405,0.21,-0.1015,-0.3175,-0.052
0.189,0.208,0.0185,-0.199,0.085,0.1135,0.286,0.094,0.281,0.279,0.239,0.2065,-0.1065,-0.3125,-0.052
0.1845,0.208,0.0235,-0.1965,0.08,0.116,0.2915,0.0945,0.2815,0.28,0.2395,0.2075,-0.1085,-0.3145,-0.0515
0.178,0.2025,0.0245,-0.1905,0.0765,0.113,0.2955,0.095,0.28,0.282,0.2395,0.209,-0.1115,-0.3245,-0.048
0.176,0.1975,0.0215,-0.187,0.077,0.1095,0.3,0.1005,0.2805,0.2845,0.24,0.211,-0.1105,-0.329,-0.048
0.175,0.1945,0.019,-0.185,0.078,0.107,0.304,0.102,0.2825,0.2865,0.24,0.2125,-0.108,-0.336,-0.049
0.1725,0.1955,0.0225,-0.184,0.075,0.109,0.304,0.0975,0.281,0.285,0.2395,0.2105,-0.1095,-0.332,-0.0485
0.1735,0.2,0.0265,-0.187,0.0735,0.113,0.3025,0.0985,0.2815,0.2845,0.2385,0.208,-0.11,-0.324,-0.052
0.173,0.2005,0.0275,-0.187,0.0725,0.114,0.2975,0.099,0.281,0.2825,0.237,0.2045,-0.11,-0.326,-0.0525
0.1695,0.198,0.0285,-0.184,0.07,0.1135,0.2995,0.097,0.277,0.278,0.234,0.203,-0.11,-0.3275,-0.0535
0.1705,0.2005,0.03,-0.1855,0.07,0.1155,0.297,0.0965,0.277,0.2775,0.235,0.203,-0.1095,-0.327,-0.054
0.172,0.2015,0.0295,-0.187,0.071,0.1155,0.298,0.098,0.2785,0.279,0.236,0.205,-0.1075,-0.329,-0.0545
0.174,0.198,0.024,-0.186,0.0745,0.111,0.2995,0.096,0.275,0.276,0.2315,0.2015,-0.109,-0.33,-0.053
0.1805,0.203,0.022,-0.192,0.079,0.1125,0.296,0.0935,0.272,0.2705,0.2285,0.197,-0.1085,-0.325,-0.049
0.188,0.208,0.0195,-0.1985,0.084,0.114,0.298,0.0895,0.269,0.2665,0.225,0.194,-0.1105,-0.3225,-0.0535
0.19,0.207,0.0165,-0.1985,0.0865,0.1115,0.295,0.0885,0.2715,0.27,0.2275,0.1945,-0.1085,-0.324,-0.0565
0.1895,0.2095,0.02,-0.1995,0.0845,0.1145,0.2945,0.0955,0.277,0.2765,0.233,0.2005,-0.105,-0.322,-0.0555
0.19,0.2045,0.0145,-0.1975,0.0875,0.1095,0.2965,0.0975,0.275,0.2735,0.2295,0.199,-0.108,-0.329,-0.0555
0.187,0.199,0.0115,-0.193,0.0875,0.105,0.3015,0.0975,0.2775,0.276,0.233,0.2025,-0.1065,-0.3345,-0.0555
0.181,0.194,0.013,-0.188,0.0835,0.1035,0.302,0.099,0.279,0.2785,0.234,0.203,-0.108,-0.333,-0.054
0.1755,0.1845,0.009,-0.18,0.083,0.097,0.2975,0.098,0.2735,0.2745,0.2285,0.198,-0.1115,-0.336,-0.0535
0.172,0.1835,0.0115,-0.178,0.08,0.0975,0.297,0.094,0.2715,0.2745,0.2285,0.2005,-0.1095,-0.3355,-0.0535
0.1725,0.1855,0.0135,-0.1795,0.0795,0.0995,0.293,0.0945,0.273,0.2755,0.228,0.2,-0.11,-0.337,-0.054
0.167,0.18,0.013,-0.1735,0.077,0.0965,0.2975,0.0975,0.2735,0.277,0.227,0.2015,-0.112,-0.3405,-0.056
0.16,0.1705,0.0105,-0.1655,0.0745,0.0905,0.3025,0.0985,0.2765,0.2815,0.228,0.204,-0.1095,-0.3475,-0.0555
0.1555,0.1655,0.01,-0.1605,0.0725,0.088,0.3005,0.0995,0.2765,0.281,0.228,0.2035,-0.109,-0.351,-0.0555
0.1495,0.1635,0.014,-0.1565,0.0675,0.0885,0.298,0.0975,0.273,0.2765,0.227,0.2005,-0.1115,-0.3425,-0.0565
0.149,0.1685,0.019,-0.159,0.065,0.094,0.298,0.095,0.273,0.274,0.226,0.196,-0.1115,-0.331,-0.058
0.1515,0.1765,0.025,-0.164,0.063,0.101,0.297,0.0945,0.2735,0.274,0.2265,0.1975,-0.111,-0.3275,-0.0595
0.1545,0.1795,0.025,-0.1675,0.0645,0.1025,0.2945,0.095,0.275,0.2745,0.2275,0.198,-0.1105,-0.327,-0.0565
0.155,0.1835,0.029,-0.1695,0.063,0.1065,0.293,0.0935,0.275,0.274,0.2285,0.1975,-0.1115,-0.321,-0.055
0.157,0.184,0.027,-0.171,0.065,0.1055,0.294,0.095,0.277,0.2755,0.23,0.2,-0.1095,-0.324,-0.0565
0.16,0.186,0.026,-0.173,0.067,0.106,0.2945,0.0945,0.278,0.2765,0.2305,0.1985,-0.1075,-0.3245,-0.0545
0.16,0.1905,0.0305,-0.1755,0.0645,0.1105,0.2925,0.093,0.277,0.2755,0.229,0.1965,-0.105,-0.3215,-0.055
0.164,0.195,0.031,-0.18,0.0665,0.113,0.29,0.09,0.2735,0.2695,0.2265,0.193,-0.104,-0.3165,-0.055
0.1685,0.2005,0.0315,-0.1845,0.068,0.116,0.29,0.0905,0.273,0.2685,0.228,0.1925,-0.105,-0.316,-0.0565
0.172,0.199,0.0265,-0.186,0.0725,0.113,0.2935,0.094,0.278,0.276,0.2335,0.1965,-0.1035,-0.32,-0.06
0.17,0.194,0.024,-0.182,0.0725,0.109,0.295,0.0945,0.2775,0.278,0.2345,0.199,-0.1015,-0.3225,-0.0585
0.1675,0.1895,0.0225,-0.179,0.0725,0.106,0.2985,0.0975,0.278,0.277,0.233,0.198,-0.104,-0.331,-0.059
0.1715,0.1895,0.0185,-0.181,0.0765,0.104,0.2995,0.0995,0.28,0.278,0.233,0.1985,-0.1065,-0.331,-0.0595
0.1675,0.1845,0.0175,-0.1765,0.075,0.101,0.2985,0.103,0.281,0.28,0.234,0.1995,-0.1055,-0.332,-0.058
0.1615,0.1815,0.0205,-0.172,0.0705,0.101,0.301,0.1,0.282,0.2825,0.2355,0.1985,-0.1065,-0.3305,-0.06
0.1615,0.1855,0.0235,-0.174,0.069,0.1045,0.305,0.099,0.2795,0.2805,0.2345,0.2,-0.1085,-0.3335,-0.0605
0.159,0.1815,0.023,-0.1705,0.0675,0.1025,0.3105,0.1055,0.2795,0.2815,0.235,0.1995,-0.111,-0.3395,-0.0615
0.157,0.1755,0.019,-0.1665,0.069,0.097,0.313,0.1105,0.283,0.286,0.235,0.2,-0.1125,-0.3425,-0.065
0.146,0.1675,0.0215,-0.157,0.062,0.094,0.322,0.119,0.2865,0.2865,0.232,0.2,-0.114,-0.347,-0.066
0.1405,0.1655,0.025,-0.153,0.0575,0.0955,0.3295,0.1235,0.29,0.285,0.23,0.1955,-0.116,-0.344,-0.0705
0.145,0.1685,0.023,-0.157,0.0605,0.0955,0.3265,0.1225,0.285,0.2775,0.223,0.1865,-0.1195,-0.3435,-0.073
0.14,0.1655,0.0255,-0.153,0.057,0.0955,0.336,0.133,0.2905,0.277,0.2205,0.1825,-0.1225,-0.344,-0.0795
0.145,0.17,0.025,-0.1575,0.0595,0.0975,0.344,0.1495,0.3025,0.2815,0.2235,0.1825,-0.122,-0.3425,-0.091
0.1415,0.1715,0.03,-0.1565,0.0555,0.1005,0.3545,0.1635,0.3105,0.2835,0.223,0.1785,-0.1245,-0.3415,-0.0995
0.1305,0.1645,0.0345,-0.1475,0.048,0.0995,0.3695,0.1775,0.3135,0.28,0.2195,0.173,-0.133,-0.3425,-0.1085
0.121,0.157,0.036,-0.139,0.0425,0.0965,0.3905,0.202,0.315,0.2695,0.206,0.159,-0.1465,-0.3465,-0.1225
0.1165,0.1505,0.034,-0.1335,0.041,0.092,0.4195,0.236,0.324,0.2615,0.1935,0.142,-0.16,-0.35,-0.1445
0.1285,0.15,0.0215,-0.1395,0.053,0.086,0.4345,0.261,0.3315,0.253,0.1795,0.125,-0.17,-0.3565,-0.166
0.1395,0.1495,0.01,-0.145,0.0645,0.08,0.453,0.292,0.346,0.2535,0.1705,0.1135,-0.176,-0.362,-0.1865
0.142,0.1475,0.006,-0.145,0.068,0.077,0.4725,0.3265,0.368,0.266,0.1755,0.115,-0.176,-0.369,-0.203
0.1425,0.147,0.005,-0.145,0.0685,0.076,0.485,0.3515,0.3895,0.284,0.187,0.1215,-0.1715,-0.3785,-0.2145
0.147,0.148,0.001,-0.148,0.0725,0.0745,0.489,0.3765,0.414,0.3055,0.2015,0.13,-0.1625,-0.3805,-0.2235
0.1555,0.1465,-0.009,-0.1515,0.082,0.069,0.483,0.393,0.442,0.332,0.223,0.144,-0.1455,-0.384,-0.231
0.171,0.149,-0.022,-0.16,0.0965,0.0635,0.4675,0.398,0.4645,0.3595,0.247,0.1605,-0.124,-0.386,-0.2365
0.191,0.171,-0.02,-0.181,0.105,0.0755,0.452,0.4255,0.505,0.3975,0.2815,0.183,-0.0985,-0.374,-0.254
0.2065,0.196,-0.0105,-0.2015,0.108,0.093,0.4585,0.4645,0.553,0.443,0.321,0.2085,-0.072,-0.3555,-0.2845
0.22,0.211,-0.009,-0.216,0.1145,0.101,0.452,0.4735,0.5815,0.482,0.3555,0.2365,-0.0445,-0.3405,-0.2955
0.24,0.2315,-0.008,-0.236,0.1235,0.1115,0.4305,0.478,0.617,0.5305,0.4055,0.275,-0.0095,-0.3265,-0.303
0.256,0.2545,-0.0015,-0.2555,0.1285,0.1265,0.421,0.49,0.65,0.5745,0.451,0.3085,0.0235,-0.3035,-0.3155
0.279,0.293,0.0135,-0.286,0.1325,0.153,0.396,0.4805,0.6785,0.6215,0.5,0.347,0.0635,-0.265,-0.318
0.316,0.3345,0.0185,-0.3255,0.1485,0.1765,0.3695,0.477,0.7145,0.6745,0.558,0.3905,0.1105,-0.233,-0.3245
0.347,0.37,0.0225,-0.359,0.162,0.196,0.3555,0.48,0.75,0.725,0.61,0.429,0.152,-0.203,-0.338
0.387,0.417,0.03,-0.402,0.178,0.2235,0.321,0.4595,0.7915,0.791,0.6805,0.4825,0.2035,-0.165,-0.345
0.4305,0.4685,0.0375,-0.45,0.1965,0.253,0.2675,0.412,0.819,0.853,0.75,0.537,0.257,-0.1305,-0.3305
0.4745,0.511,0.037,-0.493,0.2185,0.274,0.1995,0.327,0.826,0.9035,0.8145,0.59,0.3095,-0.104,-0.2955
0.5305,0.545,0.0145,-0.538,0.2575,0.28,0.1415,0.273,0.864,0.981,0.896,0.652,0.3735,-0.0925,-0.269
0.578,0.5805,0.0025,-0.5795,0.2875,0.2915,0.0855,0.2145,0.89,1.045,0.9645,0.704,0.4305,-0.0665,-0.244
0.629,0.6215,-0.0075,-0.625,0.318,0.3065,0.0165,0.1425,0.91,1.1035,1.035,0.7585,0.4895,-0.0275,-0.213
0.7035,0.6745,-0.029,-0.689,0.3655,0.322,-0.058,0.101,0.97,1.1995,1.136,0.8315,0.5665,-0.0015,-0.1855
0.7715,0.7145,-0.0565,-0.743,0.4135,0.329,-0.1395,0.047,1.014,1.291,1.233,0.907,0.6455,0.014,-0.148
0.819,0.7525,-0.066,-0.786,0.4425,0.343,-0.209,-0.01,1.04,1.3615,1.3105,0.9735,0.71,0.0415,-0.113
0.87,0.7945,-0.0755,-0.8325,0.4725,0.359,-0.287,-0.0765,1.0555,1.4155,1.373,1.0265,0.7625,0.068,-0.07
0.925,0.8355,-0.0895,-0.8805,0.507,0.373,-0.374,-0.144,1.064,1.463,1.4305,1.079,0.8155,0.0975,-0.0155
0.965,0.876,-0.089,-0.921,0.5265,0.3935,-0.4435,-0.208,1.0595,1.4945,1.4745,1.124,0.855,0.1295,0.034
1.0045,0.903,-0.1015,-0.954,0.5525,0.4005,-0.5045,-0.261,1.059,1.527,1.5155,1.162,0.8905,0.145,0.0755
1.0325,0.9295,-0.103,-0.981,0.5675,0.413,-0.553,-0.302,1.061,1.557,1.5535,1.196,0.923,0.1645,0.1095
1.042,0.9375,-0.1045,-0.99,0.573,0.416,-0.579,-0.318,1.0705,1.5785,1.578,1.2175,0.9395,0.1735,0.1315
1.058,0.9495,-0.1085,-1.004,0.5825,0.4205,-0.6055,-0.331,1.0745,1.598,1.602,1.2415,0.9585,0.1845,0.1525
1.076,0.9745,-0.102,-1.0255,0.5885,0.436,-0.64,-0.3625,1.0665,1.616,1.632,1.275,0.986,0.2045,0.1795
1.0855,0.983,-0.1025,-1.0345,0.5935,0.44,-0.661,-0.383,1.0545,1.6155,1.6405,1.29,1.0005,0.211,0.2045
1.0835,0.9645,-0.1185,-1.024,0.6005,0.4225,-0.6615,-0.3925,1.028,1.5945,1.6275,1.284,1.0005,0.1955,0.225
1.088,0.9355,-0.152,-1.012,0.6195,0.3915,-0.6625,-0.4065,0.999,1.5725,1.612,1.277,0.9995,0.1655,0.2475
1.076,0.9265,-0.149,-1.0015,0.6125,0.388,-0.669,-0.4645,0.912,1.499,1.559,1.253,0.9685,0.157,0.284
1.0285,0.9175,-0.111,-0.9735,0.5695,0.403,-0.6565,-0.5445,0.7815,1.387,1.481,1.218,0.9115,0.164,0.3265
0.9665,0.9,-0.0665,-0.9335,0.516,0.4165,-0.6355,-0.628,0.632,1.249,1.378,1.171,0.84,0.17,0.376
0.91,0.87,-0.0405,-0.8905,0.4745,0.4145,-0.6135,-0.685,0.51,1.119,1.2685,1.108,0.762,0.1615,0.417
0.8715,0.81,-0.0615,-0.841,0.466,0.374,-0.5875,-0.7075,0.433,1.022,1.1795,1.0465,0.698,0.118,0.4445
0.828,0.7515,-0.0765,-0.7895,0.452,0.337,-0.566,-0.7495,0.3125,0.8855,1.061,0.9775,0.6235,0.075,0.4835
0.775,0.7165,-0.0575,-0.746,0.416,0.329,-0.555,-0.8045,0.178,0.7345,0.9365,0.9125,0.5455,0.0545,0.527
0.742,0.6855,-0.0565,-0.714,0.399,0.314,-0.5485,-0.821,0.105,0.6395,0.853,0.869,0.497,0.0255,0.553
0.703,0.648,-0.055,-0.676,0.379,0.296,-0.5265,-0.8275,0.0195,0.527,0.7475,0.8115,0.433,-0.008,0.576
0.659,0.61,-0.049,-0.6345,0.3535,0.2805,-0.5005,-0.863,-0.121,0.361,0.603,0.733,0.3455,-0.039,0.612
0.613,0.56,-0.053,-0.5865,0.3325,0.2535,-0.462,-0.869,-0.2245,0.226,0.4775,0.659,0.267,-0.077,0.6285
0.5605,0.515,-0.0455,-0.538,0.303,0.2345,-0.4035,-0.834,-0.261,0.154,0.399,0.603,0.2055,-0.1025,0.6145
0.5215,0.4815,-0.04,-0.502,0.2805,0.221,-0.3515,-0.7985,-0.2845,0.101,0.338,0.554,0.1535,-0.1245,0.5955
0.486,0.4495,-0.0365,-0.468,0.261,0.2065,-0.295,-0.7595,-0.3015,0.055,0.282,0.507,0.106,-0.1435,0.576
0.447,0.4185,-0.0285,-0.433,0.2375,0.195,-0.2335,-0.6995,-0.29,0.036,0.2435,0.469,0.066,-0.1615,0.546
0.404,0.3995,-0.0045,-0.402,0.204,0.1975,-0.171,-0.634,-0.27,0.025,0.2125,0.4365,0.027,-0.168,0.5075
0.3655,0.3855,0.02,-0.376,0.1725,0.203,-0.111,-0.567,-0.2415,0.0235,0.192,0.4075,-0.0045,-0.1655,0.4655
0.331,0.368,0.037,-0.3495,0.1465,0.2025,-0.065,-0.499,-0.199,0.035,0.183,0.3805,-0.028,-0.167,0.4225
0.313,0.357,0.044,-0.3355,0.1345,0.2005,-0.026,-0.44,-0.159,0.051,0.1825,0.359,-0.0425,-0.165,0.38
0.303,0.3415,0.0385,-0.3225,0.132,0.19,0.012,-0.3795,-0.121,0.063,0.1775,0.3345,-0.0565,-0.1775,0.341
0.2995,0.323,0.024,-0.3115,0.1375,0.1735,0.0475,-0.3165,-0.0775,0.0785,0.171,0.3095,-0.0705,-0.2015,0.3015
0.303,0.306,0.003,-0.3045,0.1495,0.1545,0.0705,-0.263,-0.0395,0.097,0.171,0.29,-0.0765,-0.2235,0.2675
0.2875,0.293,0.0055,-0.2905,0.141,0.149,0.087,-0.218,-0.0075,0.1105,0.1715,0.2775,-0.085,-0.233,0.2435
0.2755,0.287,0.012,-0.2815,0.1315,0.1495,0.111,-0.1825,0.0195,0.122,0.1715,0.267,-0.094,-0.238,0.2195
0.276,0.291,0.015,-0.2835,0.1305,0.1525,0.125,-0.162,0.0385,0.1295,0.1745,0.259,-0.0975,-0.2385,0.199
0.2755,0.299,0.0235,-0.2875,0.126,0.161,0.135,-0.1435,0.056,0.136,0.1775,0.2555,-0.0975,-0.235,0.182
0.2715,0.2985,0.0265,-0.285,0.122,0.1625,0.148,-0.125,0.0685,0.14,0.1765,0.2495,-0.101,-0.2385,0.1635
0.267,0.292,0.025,-0.2795,0.1205,0.1585,0.161,-0.1065,0.0835,0.1515,0.1795,0.2465,-0.1015,-0.2465,0.149
0.258,0.286,0.028,-0.2725,0.1145,0.157,0.174,-0.0885,0.0985,0.1615,0.1825,0.244,-0.1035,-0.256,0.1375
0.251,0.28,0.029,-0.266,0.111,0.1545,0.1865,-0.0705,0.1115,0.1695,0.187,0.2395,-0.1055,-0.262,0.1225
0.2445,0.2685,0.024,-0.257,0.11,0.1465,0.198,-0.0565,0.1255,0.179,0.1905,0.236,-0.1055,-0.27,0.1065
0.2345,0.258,0.0235,-0.2465,0.1055,0.1405,0.2105,-0.039,0.141,0.187,0.1935,0.2315,-0.111,-0.2775,0.09
0.227,0.2515,0.025,-0.2395,0.101,0.138,0.2245,-0.0185,0.157,0.197,0.199,0.228,-0.1115,-0.2795,0.074
0.2205,0.246,0.0255,-0.2335,0.0975,0.1355,0.233,-0.0065,0.1675,0.2055,0.2,0.2265,-0.1115,-0.2875,0.057
0.2105,0.234,0.023,-0.2225,0.0935,0.1285,0.2425,0.0075,0.1815,0.215,0.2035,0.2255,-0.1135,-0.299,0.042
0.2005,0.222,0.0215,-0.2115,0.089,0.1215,0.2555,0.0235,0.1965,0.226,0.2105,0.226,-0.113,-0.306,0.028
0.1955,0.215,0.02,-0.2055,0.0875,0.118,0.267,0.0415,0.21,0.2365,0.215,0.224,-0.112,-0.311,0.0125
0.189,0.2085,0.019,-0.199,0.085,0.114,0.275,0.054,0.219,0.241,0.2155,0.218,-0.112,-0.314,0.0
0.1895,0.212,0.0225,-0.201,0.0835,0.117,0.281,0.067,0.2285,0.247,0.217,0.2125,-0.1135,-0.31,-0.0115
0.187,0.212,0.0255,-0.1995,0.0805,0.119,0.2865,0.075,0.2365,0.2485,0.216,0.207,-0.1155,-0.308,-0.0215
0.1825,0.209,0.0265,-0.196,0.078,0.1175,0.2915,0.076,0.2365,0.2445,0.214,0.203,-0.1185,-0.311,-0.031
0.182,0.211,0.029,-0.197,0.0765,0.12,0.294,0.0785,0.2395,0.246,0.214,0.2,-0.1195,-0.3085,-0.037
0.1805,0.2085,0.028,-0.195,0.076,0.1185,0.2975,0.0825,0.2405,0.246,0.2155,0.1985,-0.1195,-0.304,-0.0385
0.1835,0.2095,0.0265,-0.197,0.0785,0.118,0.3035,0.086,0.241,0.243,0.213,0.197,-0.1205,-0.308,-0.0395
0.184,0.212,0.0285,-0.1985,0.0775,0.12,0.302,0.088,0.242,0.2395,0.2085,0.192,-0.1235,-0.3105,-0.041
0.1855,0.217,0.032,-0.2015,0.0765,0.1245,0.302,0.087,0.2395,0.2345,0.2075,0.1885,-0.1245,-0.302,-0.043
0.193,0.2225,0.0295,-0.208,0.0815,0.126,0.3015,0.0835,0.24,0.2315,0.205,0.1865,-0.125,-0.3025,-0.044
0.199,0.226,0.027,-0.213,0.0855,0.1265,0.3025,0.09,0.2445,0.2355,0.209,0.188,-0.1265,-0.305,-0.047
0.1935,0.2195,0.026,-0.2065,0.0835,0.123,0.307,0.096,0.2485,0.2375,0.212,0.191,-0.128,-0.3105,-0.047
0.1845,0.2095,0.025,-0.1975,0.0795,0.1175,0.31,0.099,0.248,0.236,0.2065,0.1875,-0.1315,-0.317,-0.046
0.183,0.2075,0.0245,-0.1955,0.079,0.116,0.3135,0.1015,0.249,0.237,0.2075,0.1875,-0.1325,-0.318,-0.0495
0.1825,0.201,0.0185,-0.192,0.0815,0.11,0.3175,0.1045,0.254,0.24,0.2095,0.189,-0.132,-0.3245,-0.0515
0.1845,0.205,0.0205,-0.195,0.0815,0.113,0.3205,0.1105,0.2565,0.241,0.211,0.1885,-0.1325,-0.3205,-0.055
0.1855,0.2075,0.022,-0.1965,0.0815,0.115,0.321,0.112,0.2585,0.246,0.213,0.1895,-0.1315,-0.3225,-0.0575
0.181,0.2005,0.0195,-0.191,0.0805,0.11,0.3245,0.117,0.2615,0.2515,0.2155,0.1925,-0.131,-0.331,-0.0585
0.1755,0.193,0.017,-0.1845,0.079,0.105,0.327,0.1225,0.2635,0.2575,0.219,0.1955,-0.13,-0.336,-0.0605
0.169,0.188,0.019,-0.1785,0.075,0.1035,0.3295,0.124,0.267,0.2605,0.22,0.195,-0.1315,-0.337,-0.0615
0.1655,0.187,0.022,-0.1765,0.0715,0.1045,0.3285,0.123,0.266,0.2545,0.2175,0.191,-0.134,-0.332,-0.0645
0.1695,0.191,0.0215,-0.1805,0.0735,0.1065,0.326,0.12,0.265,0.2515,0.216,0.1875,-0.1335,-0.3295,-0.065
0.172,0.1955,0.023,-0.184,0.0745,0.1095,0.3285,0.1255,0.269,0.253,0.218,0.189,-0.133,-0.325,-0.0655
0.1695,0.194,0.0245,-0.182,0.0725,0.1095,0.3285,0.1245,0.2685,0.2535,0.2165,0.187,-0.134,-0.325,-0.069
0.1675,0.1945,0.027,-0.1815,0.07,0.1105,0.3315,0.123,0.2675,0.251,0.215,0.1835,-0.134,-0.325,-0.0705
0.1685,0.194,0.0255,-0.1815,0.0715,0.1095,0.3295,0.125,0.2705,0.253,0.218,0.185,-0.1325,-0.323,-0.0695
0.176,0.1975,0.0215,-0.187,0.077,0.1095,0.332,0.126,0.2725,0.253,0.218,0.183,-0.1325,-0.3255,-0.071
0.181,0.204,0.023,-0.1925,0.0785,0.1135,0.3335,0.128,0.2735,0.2495,0.2185,0.1825,-0.1315,-0.321,-0.073
0.1835,0.2125,0.029,-0.198,0.077,0.1205,0.33,0.1265,0.275,0.2485,0.22,0.1815,-0.1325,-0.313,-0.073
0.1885,0.2165,0.028,-0.203,0.08,0.1225,0.331,0.1265,0.2755,0.248,0.2165,0.1805,-0.134,-0.3145,-0.0725
0.1855,0.213,0.0275,-0.1995,0.079,0.12,0.331,0.128,0.276,0.2485,0.2165,0.182,-0.135,-0.3165,-0.075
0.1835,0.209,0.0255,-0.1965,0.0785,0.1175,0.3345,0.132,0.2785,0.255,0.2205,0.185,-0.1345,-0.319,-0.076
0.1825,0.203,0.02,-0.193,0.081,0.1115,0.334,0.133,0.2805,0.2585,0.2225,0.186,-0.132,-0.3245,-0.073
0.181,0.2,0.0195,-0.1905,0.0805,0.1095,0.336,0.132,0.283,0.259,0.2245,0.1885,-0.1315,-0.327,-0.0715
0.182,0.2,0.0175,-0.191,0.082,0.1085,0.3395,0.137,0.2855,0.264,0.225,0.1905,-0.1315,-0.329,-0.0715
0.1825,0.202,0.019,-0.1925,0.0815,0.1105,0.3375,0.144,0.286,0.263,0.224,0.188,-0.133,-0.324,-0.0735
0.178,0.202,0.024,-0.19,0.0765,0.113,0.3415,0.1445,0.286,0.2645,0.224,0.19,-0.1325,-0.326,-0.078
0.173,0.198,0.0245,-0.1855,0.074,0.1115,0.343,0.144,0.2875,0.269,0.2255,0.1925,-0.1295,-0.3315,-0.0795
0.1715,0.193,0.0215,-0.1825,0.0745,0.107,0.3435,0.1455,0.2885,0.2725,0.2275,0.195,-0.127,-0.337,-0.078
0.1665,0.189,0.0225,-0.178,0.072,0.1055,0.347,0.148,0.2885,0.275,0.227,0.197,-0.127,-0.3405,-0.077
0.1615,0.189,0.0275,-0.1755,0.0665,0.1085,0.3435,0.146,0.2885,0.273,0.226,0.195,-0.1275,-0.331,-0.0775
0.158,0.191,0.033,-0.1745,0.062,0.112,0.342,0.14,0.2845,0.268,0.2235,0.191,-0.1285,-0.3265,-0.078
0.1605,0.1965,0.036,-0.179,0.062,0.1165,0.342,0.1425,0.285,0.267,0.221,0.1895,-0.1285,-0.326,-0.078
0.1655,0.203,0.0375,-0.1845,0.0635,0.1205,0.34,0.144,0.2895,0.268,0.222,0.189,-0.1275,-0.324,-0.081
0.1625,0.2025,0.04,-0.1825,0.061,0.121,0.34,0.141,0.289,0.268,0.224,0.1885,-0.129,-0.321,-0.0825
0.1585,0.202,0.0435,-0.1805,0.057,0.123,0.3435,0.144,0.291,0.27,0.2255,0.19,-0.129,-0.3165,-0.083
0.168,0.207,0.039,-0.1875,0.0645,0.123,0.343,0.142,0.291,0.2665,0.224,0.188,-0.13,-0.32,-0.0825
0.1785,0.215,0.0365,-0.197,0.071,0.126,0.3365,0.14,0.2895,0.264,0.2215,0.185,-0.131,-0.318,-0.0825
0.188,0.224,0.036,-0.206,0.076,0.13,0.336,0.141,0.289,0.26,0.22,0.183,-0.13,-0.3105,-0.083
0.201,0.2275,0.0265,-0.2145,0.087,0.127,0.3345,0.1355,0.287,0.258,0.2175,0.181,-0.13,-0.3075,-0.082
0.198,0.2295,0.0315,-0.214,0.083,0.1305,0.336,0.1385,0.2915,0.2645,0.2215,0.186,-0.128,-0.309,-0.083
0.1935,0.227,0.0335,-0.2105,0.08,0.13,0.3415,0.147,0.2945,0.2695,0.2265,0.192,-0.127,-0.3145,-0.0825
0.1925,0.223,0.0305,-0.208,0.081,0.1265,0.343,0.1495,0.2955,0.2735,0.228,0.193,-0.128,-0.319,-0.0825
0.191,0.2225,0.0315,-0.207,0.0795,0.127,0.3445,0.1515,0.296,0.2745,0.228,0.194,-0.1255,-0.3205,-0.0825
0.1925,0.22,0.0275,-0.2065,0.082,0.1235,0.3445,0.154,0.2965,0.276,0.23,0.196,-0.1245,-0.3235,-0.0795
0.189,0.22,0.031,-0.205,0.079,0.1255,0.346,0.154,0.2975,0.278,0.2325,0.1975,-0.1235,-0.323,-0.081
0.1875,0.222,0.0345,-0.205,0.0765,0.128,0.35,0.1565,0.3,0.282,0.2345,0.201,-0.1215,-0.3245,-0.085
0.184,0.2175,0.0335,-0.201,0.075,0.1255,0.3505,0.16,0.304,0.2845,0.234,0.2025,-0.1215,-0.326,-0.0825
0.1795,0.21,0.0305,-0.195,0.074,0.12,0.353,0.1625,0.3035,0.288,0.2365,0.206,-0.12,-0.3275,-0.082
0.1725,0.2065,0.0345,-0.19,0.0685,0.1205,0.357,0.1645,0.306,0.2925,0.2405,0.2095,-0.1205,-0.3295,-0.0835
0.171,0.209,0.0375,-0.1905,0.0665,0.1235,0.353,0.1625,0.3055,0.2865,0.2365,0.205,-0.1215,-0.3245,-0.082
0.1815,0.216,0.035,-0.199,0.073,0.1255,0.3495,0.1595,0.3035,0.283,0.2335,0.202,-0.1195,-0.3185,-0.082
0.183,0.2225,0.04,-0.203,0.071,0.1315,0.352,0.16,0.3055,0.2845,0.2355,0.2035,-0.12,-0.315,-0.084
0.183,0.225,0.0415,-0.2045,0.0705,0.1335,0.3505,0.16,0.302,0.2835,0.2345,0.2025,-0.1205,-0.3145,-0.085
0.182,0.228,0.0455,-0.2055,0.068,0.137,0.349,0.159,0.301,0.2825,0.234,0.2,-0.12,-0.313,-0.086
0.193,0.232,0.039,-0.2125,0.0765,0.1355,0.349,0.16,0.3025,0.2845,0.236,0.199,-0.119,-0.3145,-0.088
0.2045,0.231,0.026,-0.218,0.089,0.1285,0.347,0.159,0.3015,0.282,0.2345,0.1965,-0.118,-0.317,-0.0875
0.197,0.2295,0.0325,-0.2135,0.082,0.131,0.3465,0.1565,0.3025,0.278,0.2345,0.195,-0.118,-0.313,-0.087
0.197,0.2365,0.0395,-0.217,0.0785,0.138,0.344,0.154,0.3005,0.275,0.2325,0.1925,-0.1185,-0.3085,-0.088
0.2005,0.2365,0.036,-0.2185,0.082,0.136,0.343,0.153,0.299,0.273,0.2305,0.192,-0.1185,-0.309,-0.0885
0.198,0.2315,0.0335,-0.215,0.082,0.1325,0.3415,0.1565,0.3,0.2775,0.233,0.1935,-0.119,-0.3135,-0.087
0.1965,0.23,0.0335,-0.2135,0.081,0.132,0.344,0.1585,0.303,0.282,0.236,0.197,-0.1185,-0.316,-0.088
0.195,0.226,0.0315,-0.2105,0.0815,0.1285,0.348,0.161,0.306,0.284,0.24,0.1995,-0.118,-0.3205,-0.089
0.191,0.222,0.031,-0.207,0.08,0.1265,0.347,0.1645,0.3075,0.285,0.2395,0.198,-0.118,-0.325,-0.087
0.1865,0.2175,0.031,-0.2025,0.0775,0.124,0.3475,0.165,0.3085,0.287,0.239,0.201,-0.1165,-0.3245,-0.0885
0.1835,0.2165,0.033,-0.2,0.075,0.125,0.347,0.164,0.306,0.2865,0.238,0.2,-0.1165,-0.3235,-0.0885
0.181,0.214,0.033,-0.198,0.074,0.1235,0.3475,0.1615,0.3025,0.2845,0.2365,0.1985,-0.1185,-0.325,-0.09
0.179,0.208,0.029,-0.194,0.075,0.1185,0.3495,0.1635,0.305,0.29,0.238,0.202,-0.116,-0.327,-0.09
0.1745,0.201,0.026,-0.188,0.074,0.1135,0.3505,0.1695,0.3095,0.2945,0.2405,0.205,-0.114,-0.3325,-0.088
0.17,0.198,0.028,-0.184,0.071,0.113,0.3535,0.172,0.3095,0.295,0.242,0.2045,-0.116,-0.332,-0.09
0.169,0.2005,0.031,-0.185,0.069,0.116,0.351,0.17,0.307,0.292,0.239,0.2025,-0.117,-0.327,-0.0905
0.1685,0.2015,0.0325,-0.1855,0.0675,0.117,0.347,0.1655,0.3045,0.287,0.2365,0.199,-0.1175,-0.3215,-0.09
0.1725,0.2055,0.033,-0.189,0.0695,0.119,0.3465,0.164,0.305,0.2865,0.236,0.198,-0.117,-0.3205,-0.091
0.1775,0.2075,0.03,-0.193,0.0735,0.119,0.3445,0.166,0.304,0.2875,0.236,0.198,-0.1175,-0.319,-0.0915
0.1795,0.2085,0.029,-0.194,0.075,0.119,0.3435,0.165,0.3055,0.286,0.2365,0.197,-0.1185,-0.319,-0.092
0.1795,0.2075,0.028,-0.1935,0.0755,0.118,0.344,0.165,0.3075,0.2885,0.237,0.198,-0.117,-0.3235,-0.0925
0.178,0.2055,0.028,-0.192,0.075,0.1165,0.343,0.165,0.308,0.289,0.2385,0.198,-0.116,-0.3205,-0.0915
0.18,0.212,0.032,-0.196,0.0735,0.122,0.34,0.163,0.307,0.285,0.237,0.1955,-0.116,-0.314,-0.0905
0.1835,0.2175,0.0345,-0.201,0.0745,0.126,0.339,0.1605,0.3075,0.283,0.236,0.1925,-0.1165,-0.3095,-0.0935
0.1855,0.222,0.0365,-0.204,0.0745,0.129,0.3405,0.1605,0.3075,0.283,0.237,0.1915,-0.118,-0.3065,-0.0945
0.1835,0.2205,0.037,-0.202,0.073,0.129,0.341,0.1635,0.308,0.2855,0.2385,0.1945,-0.118,-0.3095,-0.0945
0.186,0.2155,0.0295,-0.201,0.078,0.1225,0.3435,0.171,0.314,0.2935,0.2435,0.2,-0.117,-0.318,-0.0955
0.1895,0.215,0.0255,-0.203,0.082,0.1205,0.3465,0.1745,0.314,0.296,0.245,0.2025,-0.1155,-0.323,-0.0935
0.1865,0.216,0.03,-0.2015,0.078,0.123,0.344,0.173,0.3155,0.2985,0.2465,0.204,-0.114,-0.32,-0.0935
0.1875,0.216,0.029,-0.202,0.079,0.1225,0.3455,0.1755,0.318,0.3015,0.2485,0.2065,-0.112,-0.322,-0.095
0.1845,0.212,0.0275,-0.1985,0.0785,0.1195,0.3455,0.1755,0.32,0.3015,0.2465,0.2065,-0.1105,-0.3235,-0.096
0.1795,0.207,0.028,-0.1935,0.0755,0.1175,0.347,0.1775,0.323,0.305,0.25,0.2065,-0.1115,-0.324,-0.098
0.1775,0.2035,0.026,-0.191,0.0755,0.115,0.349,0.1795,0.3245,0.3085,0.252,0.211,-0.1095,-0.3295,-0.0965
0.174,0.198,0.024,-0.186,0.075,0.1105,0.352,0.1825,0.3265,0.312,0.2525,0.2145,-0.1085,-0.333,-0.0955
0.1695,0.1905,0.021,-0.1805,0.074,0.106,0.3545,0.1835,0.325,0.312,0.2535,0.2135,-0.1085,-0.336,-0.095
0.1625,0.187,0.0245,-0.175,0.0685,0.106,0.3485,0.1765,0.323,0.307,0.2495,0.2095,-0.109,-0.329,-0.095
0.162,0.1895,0.0275,-0.176,0.067,0.1085,0.348,0.174,0.32,0.302,0.2465,0.205,-0.11,-0.321,-0.096
0.165,0.192,0.027,-0.1785,0.0685,0.1095,0.3485,0.1775,0.32,0.303,0.2485,0.205,-0.1085,-0.32,-0.096
0.1685,0.1975,0.029,-0.183,0.0695,0.113,0.346,0.176,0.3205,0.305,0.2475,0.2045,-0.1085,-0.3175,-0.096
0.167,0.1995,0.032,-0.1835,0.0675,0.1155,0.3435,0.1745,0.3205,0.3035,0.247,0.2025,-0.109,-0.3155,-0.097
0.1685,0.198,0.0295,-0.1835,0.069,0.1135,0.3435,0.175,0.321,0.302,0.247,0.202,-0.108,-0.314,-0.0975
0.1695,0.197,0.0275,-0.1835,0.0705,0.1125,0.341,0.1735,0.3185,0.298,0.245,0.201,-0.1075,-0.316,-0.0965
0.167,0.1995,0.032,-0.1835,0.0675,0.1155,0.337,0.1745,0.3195,0.294,0.2435,0.2,-0.108,-0.31,-0.098
0.176,0.209,0.033,-0.193,0.0715,0.1205,0.334,0.1725,0.32,0.291,0.243,0.198,-0.107,-0.3035,-0.099
0.183,0.215,0.032,-0.199,0.075,0.1235,0.334,0.1715,0.3215,0.291,0.2455,0.198,-0.105,-0.3035,-0.1
0.1825,0.214,0.032,-0.1985,0.075,0.123,0.337,0.175,0.323,0.295,0.2455,0.2015,-0.105,-0.307,-0.1005
0.186,0.215,0.029,-0.201,0.078,0.122,0.3375,0.181,0.325,0.3015,0.2495,0.2075,-0.103,-0.3115,-0.0995
0.1905,0.2175,0.027,-0.2045,0.0815,0.1225,0.341,0.1845,0.3295,0.3065,0.2535,0.212,-0.1015,-0.311,-0.099
0.186,0.21,0.024,-0.198,0.0805,0.117,0.3415,0.184,0.329,0.3055,0.2525,0.211,-0.102,-0.315,-0.0975
0.182,0.2045,0.0225,-0.1935,0.0795,0.1135,0.34,0.184,0.329,0.306,0.2525,0.2125,-0.1,-0.318,-0.097
0.1835,0.208,0.0245,-0.196,0.0795,0.116,0.3395,0.1835,0.329,0.308,0.2525,0.212,-0.099,-0.318,-0.098
0.1805,0.206,0.0255,-0.1935,0.077,0.116,0.3415,0.186,0.3295,0.311,0.2535,0.213,-0.099,-0.3195,-0.099
0.174,0.1985,0.0245,-0.1865,0.0745,0.1115,0.343,0.1915,0.333,0.3165,0.2555,0.217,-0.0985,-0.3205,-0.099
0.172,0.193,0.021,-0.183,0.0755,0.107,0.3435,0.1945,0.335,0.319,0.256,0.217,-0.099,-0.326,-0.1
0.17,0.1905,0.02,-0.1805,0.075,0.105,0.345,0.196,0.335,0.3215,0.2555,0.219,-0.0965,-0.329,-0.1
0.169,0.1915,0.0225,-0.1805,0.073,0.107,0.34,0.1935,0.3355,0.3185,0.256,0.2175,-0.0955,-0.323,-0.1
0.169,0.1945,0.0255,-0.182,0.0715,0.11,0.336,0.189,0.334,0.312,0.2535,0.2115,-0.097,-0.3185,-0.101
0.1715,0.199,0.028,-0.1855,0.0715,0.1135,0.3365,0.1905,0.335,0.314,0.2555,0.213,-0.094,-0.3155,-0.101
0.1755,0.205,0.0295,-0.19,0.073,0.117,0.3355,0.1895,0.336,0.316,0.2565,0.213,-0.0925,-0.3135,-0.103
0.175,0.2055,0.0305,-0.1905,0.072,0.118,0.3355,0.188,0.333,0.312,0.2545,0.209,-0.0955,-0.3115,-0.104
0.1755,0.205,0.0295,-0.1905,0.0725,0.1175,0.334,0.1905,0.335,0.31,0.2555,0.2085,-0.094,-0.312,-0.104
0.175,0.205,0.03,-0.1905,0.072,0.118,0.3315,0.1905,0.336,0.3105,0.2535,0.209,-0.0925,-0.31,-0.1025
0.1735,0.2095,0.036,-0.1915,0.0685,0.1225,0.331,0.189,0.3345,0.309,0.254,0.208,-0.0915,-0.299,-0.101
0.177,0.217,0.04,-0.1975,0.068,0.129,0.331,0.189,0.3355,0.3075,0.2555,0.2065,-0.091,-0.294,-0.103
0.188,0.223,0.0355,-0.206,0.076,0.1295,0.331,0.189,0.3355,0.308,0.256,0.206,-0.0915,-0.2935,-0.1035
0.1905,0.2205,0.0295,-0.206,0.0805,0.125,0.3295,0.1915,0.336,0.3115,0.258,0.2085,-0.091,-0.299,-0.105
0.1865,0.2145,0.028,-0.201,0.079,0.1215,0.333,0.1965,0.3405,0.3195,0.2595,0.2115,-0.0895,-0.3035,-0.106
0.1835,0.215,0.0315,-0.1995,0.076,0.1235,0.3365,0.202,0.3455,0.3255,0.264,0.217,-0.0875,-0.306,-0.1045
0.1825,0.215,0.032,-0.199,0.075,0.1235,0.3365,0.208,0.351,0.3295,0.2695,0.222,-0.086,-0.31,-0.1035
0.1865,0.2145,0.0285,-0.2005,0.0785,0.1215,0.3355,0.2095,0.3525,0.331,0.2695,0.222,-0.0845,-0.313,-0.1045
0.1875,0.2165,0.029,-0.2025,0.079,0.123,0.3345,0.211,0.354,0.3335,0.27,0.224,-0.084,-0.3145,-0.104
0.1935,0.216,0.0225,-0.205,0.085,0.1195,0.3315,0.2135,0.354,0.335,0.2705,0.224,-0.084,-0.3125,-0.104
0.1955,0.213,0.0175,-0.2045,0.089,0.115,0.331,0.2155,0.355,0.3375,0.2715,0.2255,-0.083,-0.3155,-0.106
0.191,0.21,0.019,-0.2005,0.0855,0.1145,0.3365,0.2235,0.3615,0.346,0.2775,0.233,-0.0835,-0.319,-0.109
0.189,0.2075,0.0185,-0.1985,0.085,0.113,0.3375,0.225,0.363,0.346,0.2785,0.234,-0.082,-0.323,-0.1075
0.1885,0.21,0.021,-0.1995,0.0835,0.1155,0.336,0.2245,0.3665,0.346,0.281,0.235,-0.0775,-0.3205,-0.106
0.189,0.2155,0.026,-0.2025,0.0815,0.1205,0.3345,0.2255,0.368,0.347,0.283,0.2335,-0.0785,-0.311,-0.1095
0.191,0.218,0.027,-0.205,0.082,0.1225,0.331,0.2205,0.364,0.341,0.2765,0.228,-0.082,-0.3095,-0.1095
0.196,0.226,0.03,-0.211,0.083,0.128,0.3305,0.222,0.366,0.342,0.277,0.229,-0.08,-0.3035,-0.11
0.197,0.2335,0.0365,-0.2155,0.08,0.135,0.3295,0.226,0.3705,0.3485,0.2815,0.232,-0.0775,-0.2985,-0.113
0.201,0.233,0.0325,-0.217,0.084,0.1325,0.328,0.228,0.3735,0.351,0.2855,0.2345,-0.0765,-0.3025,-0.1125
0.2025,0.2325,0.0295,-0.2175,0.086,0.131,0.3285,0.2295,0.3755,0.349,0.286,0.233,-0.076,-0.3025,-0.1115
0.2085,0.2405,0.0315,-0.225,0.088,0.136,0.326,0.229,0.3755,0.3485,0.284,0.2315,-0.073,-0.297,-0.1115
0.2195,0.2515,0.032,-0.2355,0.0935,0.1415,0.3245,0.231,0.379,0.35,0.2885,0.2315,-0.0715,-0.293,-0.114
0.224,0.2555,0.0315,-0.24,0.096,0.1435,0.3275,0.2315,0.378,0.349,0.289,0.2305,-0.073,-0.292,-0.117
0.228,0.256,0.028,-0.242,0.0995,0.142,0.329,0.237,0.3795,0.3525,0.291,0.234,-0.0715,-0.294,-0.118
0.227,0.252,0.025,-0.2395,0.1005,0.1385,0.333,0.2445,0.389,0.3635,0.3,0.243,-0.068,-0.2975,-0.119
0.2285,0.2495,0.0215,-0.2395,0.1035,0.1355,0.334,0.2455,0.3895,0.3655,0.3,0.244,-0.0665,-0.298,-0.118
0.231,0.247,0.016,-0.2395,0.1075,0.1315,0.3325,0.2505,0.393,0.3675,0.3015,0.244,-0.066,-0.2995,-0.1165
0.2325,0.247,0.014,-0.24,0.109,0.1305,0.3335,0.255,0.398,0.374,0.307,0.2485,-0.0625,-0.303,-0.1195
0.234,0.25,0.0165,-0.2425,0.1085,0.1335,0.3335,0.2565,0.399,0.3745,0.308,0.2495,-0.0635,-0.299,-0.121
0.237,0.253,0.016,-0.2455,0.11,0.1345,0.335,0.26,0.4025,0.3785,0.311,0.252,-0.063,-0.297,-0.1215
0.236,0.25,0.0135,-0.243,0.111,0.132,0.336,0.263,0.4065,0.384,0.313,0.2555,-0.061,-0.3025,-0.1225
0.2315,0.2405,0.0085,-0.2365,0.1115,0.1245,0.3345,0.2645,0.409,0.388,0.313,0.256,-0.059,-0.306,-0.122
0.227,0.2355,0.008,-0.2315,0.1095,0.122,0.3335,0.267,0.409,0.3915,0.312,0.255,-0.0585,-0.3055,-0.1225
0.223,0.2365,0.0135,-0.23,0.1045,0.125,0.331,0.268,0.41,0.39,0.3105,0.254,-0.0585,-0.2995,-0.1235
0.226,0.242,0.016,-0.234,0.1045,0.129,0.3295,0.2685,0.4115,0.389,0.312,0.2535,-0.057,-0.2925,-0.1265
0.228,0.2455,0.0175,-0.237,0.105,0.132,0.327,0.2705,0.4145,0.3915,0.3135,0.253,-0.055,-0.2905,-0.128
0.227,0.244,0.0165,-0.236,0.105,0.1305,0.3215,0.268,0.4145,0.39,0.312,0.2505,-0.053,-0.2905,-0.1265
0.225,0.2465,0.0215,-0.236,0.1015,0.134,0.32,0.27,0.4165,0.3925,0.314,0.253,-0.0495,-0.2855,-0.127
0.218,0.242,0.024,-0.2305,0.0965,0.133,0.3185,0.273,0.421,0.396,0.3185,0.2545,-0.047,-0.2825,-0.128
0.2185,0.238,0.0195,-0.2285,0.099,0.1285,0.3135,0.272,0.419,0.392,0.3165,0.249,-0.047,-0.286,-0.13
0.226,0.2455,0.0195,-0.236,0.103,0.1325,0.311,0.2715,0.4185,0.387,0.314,0.2465,-0.046,-0.281,-0.132
0.233,0.2495,0.017,-0.2415,0.1075,0.1335,0.308,0.271,0.42,0.3855,0.3145,0.2465,-0.0425,-0.274,-0.1315
0.249,0.2575,0.0085,-0.2535,0.12,0.133,0.3045,0.2745,0.4235,0.3885,0.318,0.247,-0.0405,-0.2715,-0.133
0.2575,0.2635,0.0065,-0.2605,0.1255,0.135,0.3085,0.283,0.432,0.398,0.327,0.255,-0.037,-0.2735,-0.134
0.254,0.263,0.009,-0.259,0.1225,0.136,0.3105,0.292,0.4405,0.4085,0.3345,0.2635,-0.032,-0.28,-0.1335
0.2555,0.2655,0.0095,-0.2605,0.123,0.1375,0.3115,0.2965,0.4455,0.4135,0.339,0.2675,-0.03,-0.281,-0.132
0.257,0.266,0.0085,-0.262,0.124,0.137,0.3115,0.3025,0.4535,0.4205,0.3435,0.2715,-0.025,-0.2805,-0.132
0.259,0.263,0.0035,-0.261,0.1275,0.133,0.3085,0.3025,0.454,0.42,0.3405,0.2705,-0.025,-0.283,-0.1315
0.2575,0.2605,0.0035,-0.259,0.127,0.132,0.309,0.3035,0.4565,0.4225,0.341,0.2715,-0.0225,-0.2825,-0.134
0.253,0.2605,0.007,-0.257,0.123,0.1335,0.308,0.3105,0.4665,0.4325,0.349,0.278,-0.017,-0.2805,-0.137
0.252,0.256,0.004,-0.2545,0.124,0.13,0.307,0.3145,0.4715,0.4375,0.352,0.2795,-0.0165,-0.2835,-0.138
0.254,0.25,-0.0045,-0.2525,0.129,0.123,0.3075,0.32,0.4755,0.441,0.355,0.2825,-0.013,-0.288,-0.139
0.253,0.249,-0.004,-0.2515,0.1285,0.1225,0.304,0.321,0.4805,0.446,0.3575,0.285,-0.009,-0.2845,-0.139
0.2515,0.2515,0.0,-0.252,0.1255,0.126,0.3015,0.322,0.4825,0.4485,0.359,0.2845,-0.0065,-0.279,-0.14
0.256,0.2565,0.0005,-0.2565,0.1275,0.1285,0.297,0.3235,0.4835,0.448,0.3595,0.284,-0.0055,-0.273,-0.1435
0.2575,0.26,0.0025,-0.259,0.1275,0.131,0.2905,0.3225,0.487,0.4515,0.362,0.285,-0.0035,-0.2685,-0.1465
0.2595,0.2635,0.004,-0.262,0.1275,0.134,0.287,0.3255,0.491,0.4565,0.3675,0.2885,0.0015,-0.264,-0.147
0.264,0.27,0.006,-0.267,0.1285,0.138,0.2855,0.3305,0.495,0.4605,0.373,0.291,0.0055,-0.2585,-0.149
0.266,0.2695,0.0035,-0.268,0.131,0.136,0.284,0.331,0.499,0.4635,0.3775,0.293,0.0075,-0.2595,-0.149
0.272,0.2755,0.003,-0.274,0.134,0.1395,0.2775,0.335,0.505,0.469,0.382,0.295,0.012,-0.2565,-0.1495
0.279,0.2855,0.0065,-0.2825,0.136,0.146,0.2785,0.337,0.509,0.4715,0.3855,0.297,0.015,-0.2535,-0.152
0.2875,0.2955,0.0075,-0.2915,0.1395,0.1515,0.2765,0.3385,0.5115,0.4725,0.388,0.2975,0.016,-0.2485,-0.156
0.2965,0.3035,0.007,-0.3,0.1445,0.155,0.2735,0.3445,0.5185,0.4755,0.3915,0.3,0.02,-0.2475,-0.156
0.2995,0.3045,0.005,-0.302,0.147,0.1545,0.276,0.3465,0.5265,0.485,0.3985,0.306,0.024,-0.2495,-0.156
0.3035,0.3085,0.0055,-0.306,0.149,0.157,0.276,0.355,0.537,0.4995,0.409,0.3165,0.0305,-0.244,-0.1555
0.3095,0.3085,-0.001,-0.3095,0.155,0.154,0.2735,0.36,0.5425,0.5035,0.4125,0.321,0.0345,-0.245,-0.1535
0.3125,0.3105,-0.0025,-0.3115,0.1575,0.154,0.27,0.3665,0.551,0.514,0.421,0.324,0.039,-0.245,-0.1555
0.317,0.3125,-0.005,-0.315,0.1605,0.1535,0.2725,0.3725,0.5565,0.518,0.425,0.3285,0.0425,-0.2485,-0.155
0.323,0.317,-0.006,-0.3205,0.1645,0.156,0.269,0.373,0.559,0.5175,0.4265,0.3305,0.045,-0.248,-0.157
0.3235,0.3175,-0.006,-0.3205,0.1645,0.156,0.267,0.379,0.571,0.5305,0.435,0.3385,0.052,-0.2465,-0.16
0.3235,0.311,-0.0125,-0.3175,0.1675,0.1495,0.2675,0.383,0.5765,0.538,0.44,0.344,0.0555,-0.2515,-0.1595
0.324,0.3085,-0.0155,-0.3165,0.1695,0.1465,0.2635,0.3905,0.5825,0.5485,0.4465,0.3485,0.059,-0.254,-0.159
0.323,0.3045,-0.0185,-0.314,0.1705,0.143,0.2615,0.391,0.5875,0.5555,0.4515,0.353,0.0625,-0.2555,-0.156
0.323,0.311,-0.0115,-0.317,0.167,0.15,0.2575,0.3915,0.5915,0.5575,0.456,0.3535,0.063,-0.2445,-0.1595
0.328,0.3175,-0.011,-0.323,0.1695,0.153,0.252,0.3935,0.5965,0.559,0.458,0.3515,0.066,-0.237,-0.163
0.3425,0.3205,-0.0215,-0.332,0.182,0.1495,0.2445,0.388,0.5945,0.556,0.4545,0.3495,0.0685,-0.2385,-0.1625
0.3545,0.3285,-0.026,-0.342,0.19,0.1515,0.2405,0.391,0.598,0.562,0.458,0.353,0.073,-0.235,-0.1635
0.3545,0.3335,-0.0215,-0.3445,0.1875,0.156,0.242,0.397,0.608,0.5745,0.47,0.3595,0.078,-0.229,-0.166
0.356,0.336,-0.0205,-0.3465,0.188,0.158,0.241,0.4,0.612,0.5795,0.4755,0.364,0.0815,-0.226,-0.1675
0.362,0.338,-0.0245,-0.3505,0.193,0.1565,0.237,0.402,0.617,0.5825,0.479,0.3645,0.0845,-0.224,-0.1685
0.3675,0.3455,-0.022,-0.357,0.1945,0.162,0.2325,0.402,0.623,0.5875,0.484,0.3655,0.09,-0.219,-0.172
0.376,0.3545,-0.0215,-0.366,0.1985,0.1665,0.2275,0.403,0.6275,0.591,0.4895,0.3685,0.0955,-0.212,-0.172
0.379,0.3555,-0.0235,-0.3675,0.2015,0.166,0.2235,0.401,0.628,0.5905,0.491,0.3685,0.0955,-0.212,-0.172
0.3785,0.3525,-0.026,-0.366,0.202,0.1635,0.221,0.403,0.631,0.5965,0.495,0.373,0.1005,-0.22,-0.174
0.3815,0.353,-0.0285,-0.3675,0.205,0.1625,0.221,0.4095,0.6405,0.6075,0.5045,0.3815,0.1065,-0.221,-0.1715
0.3825,0.3525,-0.0305,-0.368,0.206,0.161,0.221,0.413,0.6455,0.6135,0.51,0.3855,0.1085,-0.2175,-0.1695
0.388,0.354,-0.034,-0.371,0.2105,0.16,0.222,0.419,0.654,0.6225,0.5185,0.391,0.1135,-0.216,-0.171
0.3905,0.3525,-0.038,-0.372,0.214,0.157,0.2205,0.424,0.6605,0.6295,0.523,0.395,0.1175,-0.221,-0.17
0.3885,0.353,-0.0355,-0.371,0.2115,0.159,0.2185,0.422,0.6615,0.632,0.5255,0.397,0.121,-0.2205,-0.171
0.393,0.3575,-0.0355,-0.3755,0.214,0.161,0.215,0.4215,0.663,0.6385,0.531,0.403,0.1275,-0.2155,-0.172
0.3945,0.355,-0.0395,-0.375,0.2165,0.158,0.215,0.428,0.668,0.6475,0.536,0.4095,0.1295,-0.219,-0.173
0.389,0.3495,-0.0395,-0.3695,0.214,0.155,0.219,0.4335,0.675,0.6575,0.5415,0.416,0.134,-0.2275,-0.173
0.3875,0.3455,-0.0415,-0.367,0.2145,0.152,0.2135,0.431,0.676,0.66,0.542,0.418,0.1375,-0.23,-0.172
0.389,0.3485,-0.04,-0.369,0.2145,0.1545,0.209,0.4285,0.6785,0.661,0.5465,0.417,0.139,-0.223,-0.1725
0.389,0.3545,-0.0345,-0.372,0.2115,0.16,0.207,0.4315,0.6815,0.6635,0.5495,0.4165,0.1425,-0.213,-0.1735
0.3915,0.355,-0.036,-0.3735,0.2135,0.1595,0.2005,0.428,0.6805,0.663,0.5495,0.4155,0.1435,-0.208,-0.1745
0.3985,0.3615,-0.0365,-0.3805,0.2175,0.1625,0.1975,0.424,0.6805,0.6655,0.5515,0.4185,0.1475,-0.2055,-0.174
0.402,0.3685,-0.0335,-0.3855,0.2175,0.167,0.1945,0.427,0.6865,0.6705,0.556,0.422,0.151,-0.202,-0.1775
0.4105,0.372,-0.0385,-0.3915,0.224,0.167,0.1935,0.4295,0.6935,0.6785,0.564,0.427,0.156,-0.2045,-0.1745
0.42,0.381,-0.0385,-0.401,0.229,0.1715,0.192,0.429,0.6955,0.68,0.568,0.431,0.159,-0.198,-0.1735
0.4245,0.3885,-0.036,-0.407,0.23,0.1765,0.1865,0.4225,0.6925,0.676,0.5655,0.429,0.1585,-0.1965,-0.176
0.4335,0.398,-0.036,-0.416,0.2345,0.181,0.184,0.4205,0.6905,0.6725,0.567,0.4275,0.1605,-0.1955,-0.1735
0.4385,0.4025,-0.0365,-0.421,0.237,0.183,0.1805,0.425,0.6965,0.679,0.573,0.4305,0.164,-0.1865,-0.176
0.4425,0.4045,-0.038,-0.424,0.24,0.1835,0.1805,0.426,0.702,0.6865,0.579,0.4365,0.168,-0.1915,-0.176
0.446,0.4045,-0.041,-0.4255,0.243,0.182,0.1815,0.428,0.707,0.692,0.5835,0.443,0.171,-0.197,-0.172
0.446,0.4015,-0.045,-0.424,0.2455,0.178,0.176,0.4275,0.7095,0.697,0.586,0.4475,0.173,-0.199,-0.1695
0.446,0.402,-0.044,-0.4245,0.245,0.179,0.177,0.4285,0.708,0.697,0.591,0.4505,0.175,-0.2005,-0.1685
0.4475,0.401,-0.0465,-0.4245,0.247,0.177,0.1805,0.4305,0.7085,0.699,0.5915,0.453,0.177,-0.198,-0.1675
0.448,0.4025,-0.0455,-0.4255,0.247,0.1785,0.177,0.427,0.711,0.7,0.5915,0.4545,0.1775,-0.195,-0.169
0.448,0.4015,-0.0465,-0.425,0.247,0.1775,0.178,0.4305,0.7145,0.706,0.598,0.4595,0.181,-0.195,-0.1705
0.445,0.3955,-0.0495,-0.4205,0.247,0.173,0.182,0.4355,0.7185,0.7135,0.6005,0.463,0.1815,-0.1985,-0.1695
0.44,0.39,-0.05,-0.4155,0.2445,0.17,0.181,0.4315,0.716,0.7145,0.6025,0.4655,0.1815,-0.2025,-0.1685
0.4395,0.3875,-0.052,-0.4135,0.2455,0.1675,0.179,0.4275,0.7135,0.714,0.601,0.4655,0.1825,-0.206,-0.168
0.439,0.391,-0.0475,-0.4155,0.243,0.1715,0.178,0.4275,0.715,0.7115,0.5985,0.4635,0.1825,-0.2015,-0.1665
0.4435,0.3965,-0.047,-0.42,0.245,0.1745,0.1735,0.4225,0.712,0.71,0.5995,0.462,0.1845,-0.198,-0.1655
0.447,0.401,-0.046,-0.4245,0.2465,0.1775,0.1725,0.4185,0.7115,0.709,0.6015,0.463,0.185,-0.1965,-0.168
0.4455,0.4035,-0.042,-0.425,0.2435,0.181,0.172,0.4165,0.708,0.7085,0.602,0.4625,0.1835,-0.191,-0.168
0.4475,0.4105,-0.037,-0.429,0.242,0.1865,0.168,0.413,0.708,0.708,0.602,0.4615,0.1825,-0.19,-0.1675
0.4465,0.4105,-0.0365,-0.429,0.241,0.187,0.169,0.411,0.7085,0.7085,0.605,0.464,0.186,-0.192,-0.1655
0.444,0.406,-0.038,-0.4255,0.241,0.184,0.168,0.405,0.7005,0.7,0.599,0.4585,0.183,-0.1905,-0.163
0.4505,0.413,-0.037,-0.432,0.2435,0.188,0.165,0.4005,0.697,0.6915,0.5945,0.4555,0.181,-0.1845,-0.164
0.4535,0.417,-0.036,-0.4355,0.2445,0.191,0.1645,0.4005,0.6955,0.6905,0.5955,0.4545,0.1825,-0.18,-0.1645
0.4595,0.4215,-0.038,-0.4405,0.2485,0.1915,0.1605,0.398,0.6915,0.6875,0.592,0.45,0.1815,-0.1755,-0.1645
0.464,0.4225,-0.0415,-0.4435,0.2525,0.19,0.162,0.3925,0.685,0.6875,0.591,0.4535,0.1805,-0.1785,-0.1615
0.4595,0.4155,-0.044,-0.438,0.2515,0.186,0.1665,0.3925,0.6835,0.6885,0.5935,0.454,0.178,-0.187,-0.161
0.4545,0.412,-0.0425,-0.4335,0.248,0.185,0.174,0.394,0.685,0.689,0.594,0.454,0.1775,-0.1885,-0.161
0.4495,0.407,-0.0425,-0.4285,0.246,0.1825,0.17,0.388,0.6805,0.6835,0.5895,0.4535,0.1745,-0.1895,-0.1575
0.4495,0.402,-0.0475,-0.426,0.248,0.1775,0.1665,0.383,0.6735,0.679,0.587,0.45,0.171,-0.194,-0.157
0.4435,0.4015,-0.0425,-0.4225,0.2425,0.1795,0.178,0.3835,0.6685,0.6765,0.584,0.45,0.17,-0.1935,-0.159
0.4385,0.4,-0.0385,-0.4195,0.2385,0.181,0.176,0.38,0.6645,0.6775,0.5845,0.451,0.171,-0.193,-0.159
0.43,0.39,-0.04,-0.41,0.2345,0.175,0.186,0.3795,0.6615,0.6775,0.584,0.4505,0.1675,-0.198,-0.1565
0.4185,0.3795,-0.0385,-0.3995,0.228,0.1705,0.192,0.3795,0.658,0.6725,0.578,0.4495,0.1605,-0.2035,-0.1545
0.4125,0.3755,-0.037,-0.394,0.2245,0.169,0.186,0.371,0.652,0.6675,0.5735,0.4465,0.157,-0.205,-0.153
0.4055,0.37,-0.0355,-0.388,0.2205,0.167,0.1855,0.364,0.643,0.6575,0.5665,0.4385,0.154,-0.2035,-0.153
0.398,0.368,-0.03,-0.383,0.2135,0.169,0.184,0.3555,0.633,0.6475,0.559,0.4315,0.15,-0.1995,-0.153
