i,ii,iii,avr,avl,avf,v1,v2,v3,v4,v5,v6,vx,vy,vz
-1.1685,-1.672,-0.5035,1.42,-0.333,-1.088,-0.036,-0.5465,-0.4605,-0.6765,-0.929,-0.646,-1.3385,-0.6005,-0.874
-1.644,-1.6335,0.0105,1.6385,-0.828,-0.8115,0.0735,-0.344,-0.235,-0.4215,-0.66,-0.3935,-1.2475,-0.5765,-0.848
-2.0055,-1.614,0.391,1.8095,-1.199,-0.611,0.1315,-0.221,-0.069,-0.1935,-0.402,-0.159,-1.1405,-0.5815,-0.82
-1.8375,-1.5685,0.2685,1.7025,-1.0535,-0.6495,0.03,-0.249,-0.0585,-0.1545,-0.362,-0.14,-1.069,-0.559,-0.7875
-1.833,-1.5385,0.294,1.6855,-1.064,-0.622,-0.0175,-0.287,-0.0385,-0.0235,-0.174,0.012,-0.94,-0.5535,-0.773
-1.752,-1.5225,0.2295,1.637,-0.9915,-0.646,-0.1085,-0.327,-0.057,-0.014,-0.2075,-0.028,-0.9365,-0.5355,-0.713
-1.696,-1.5015,0.194,1.5985,-0.9455,-0.653,-0.17,-0.429,-0.055,0.1385,0.284,0.489,-0.5445,-0.5535,-0.679
-1.6475,-1.493,0.154,1.57,-0.9015,-0.669,-0.2585,-0.4325,-0.09,0.8665,0.974,1.064,-0.0505,-0.533,-0.7005
-1.585,-1.464,0.12,1.524,-0.853,-0.672,-0.3425,-0.6905,-0.1715,1.0315,0.947,1.0115,-0.047,-0.5525,-0.4
-1.5675,-1.4445,0.1225,1.506,-0.8455,-0.661,-0.479,-0.557,-0.244,0.996,1.076,1.1435,0.05,-0.482,-0.2255
-1.5225,-1.426,0.096,1.474,-0.81,-0.6645,-0.5455,-0.0655,-0.326,1.076,1.114,1.161,0.088,-0.585,-0.2045
-1.4745,-1.395,0.079,1.4345,-0.777,-0.658,-0.7065,-0.239,-0.3975,1.075,1.2295,1.266,0.185,-0.256,-0.1065
-1.406,-1.3655,0.04,1.3855,-0.7235,-0.6625,-0.7275,-0.3755,-0.464,1.15,1.2895,1.3105,0.25,0.4035,-0.063
-1.3445,-1.328,0.016,1.336,-0.6805,-0.656,-0.995,-0.504,-0.5355,1.152,1.413,1.404,0.344,0.4055,-0.001
-1.313,-1.288,0.025,1.3,-0.6695,-0.6315,-1.8005,-0.6815,-0.6445,1.166,1.4395,1.4885,0.4165,0.437,0.113
-1.247,-1.2455,0.001,1.246,-0.6245,-0.622,-1.987,-0.818,-0.765,1.1315,0.7665,0.8925,0.012,0.481,-0.03
-1.2325,-1.2175,0.0155,1.2245,-0.6245,-0.601,-1.9815,-0.9345,-0.8085,1.16,0.727,0.779,-0.0535,0.474,-0.178
-1.141,-1.2225,-0.081,1.1815,-0.53,-0.6515,-2.0865,-0.945,-0.7885,1.2345,0.869,0.9,0.067,0.493,-0.1155
-1.174,-1.231,-0.057,1.2025,-0.5585,-0.644,-2.037,-0.9695,-0.7315,1.307,0.916,0.9265,0.0885,0.4725,-0.115
-1.056,-1.233,-0.1775,1.144,-0.4395,-0.705,-2.133,-1.027,-0.819,1.2575,0.9135,0.922,0.109,0.4765,-0.087
-0.382,-1.3025,-0.9205,0.842,0.269,-1.1115,-2.2975,-1.267,-1.001,1.062,0.6765,0.69,0.1035,0.417,-0.0825
-0.1105,-1.3865,-1.276,0.7485,0.5825,-1.3315,-2.3525,-1.235,-1.0825,1.019,0.6395,0.5895,0.106,0.3185,-0.111
-0.6755,-1.4415,-0.766,1.058,0.045,-1.1035,-2.165,-1.2835,-0.9395,1.1905,0.7915,0.78,0.098,0.3175,-0.1025
-1.215,-1.4585,-0.2435,1.3365,-0.486,-0.851,-1.8885,-1.843,-0.8345,1.3065,0.9495,0.8845,0.0305,0.2605,-0.13
-1.2465,-1.439,-0.1925,1.3425,-0.5275,-0.8155,-1.9405,-1.8875,-0.864,1.2465,0.7675,0.88,-0.016,0.399,-0.1455
-1.343,-1.4355,-0.093,1.389,-0.6255,-0.764,-1.3655,-1.817,-0.853,1.128,1.218,1.455,0.326,0.2045,0.085
-1.457,-1.464,-0.0065,1.4605,-0.7255,-0.7355,-0.683,-1.793,-0.8065,1.101,1.432,1.468,0.3055,-0.473,0.1175
-1.509,-1.5145,-0.0055,1.5115,-0.752,-0.76,-0.652,-1.046,-0.82,0.434,1.091,1.3045,0.091,-0.5235,0.1045
-1.577,-1.5605,0.016,1.5685,-0.797,-0.772,-0.514,-0.697,-0.8315,-0.135,1.134,1.274,0.0005,-0.5255,0.1415
-1.623,-1.595,0.0275,1.6085,-0.8255,-0.7835,-0.44,-0.729,-0.6765,-0.161,0.4545,1.107,-0.185,-0.57,0.131
-1.671,-1.616,0.0545,1.6435,-0.863,-0.7805,-0.347,-0.6255,-0.3585,-0.2925,-0.1725,1.1225,-0.2675,-0.5485,0.19
-1.7395,-1.644,0.0955,1.6915,-0.918,-0.774,-0.27,-0.5965,0.0335,-0.336,-0.23,0.4475,-0.714,-0.581,0.0645
-1.7635,-1.6715,0.0915,1.717,-0.928,-0.7895,-0.205,-0.5205,0.1565,-0.447,-0.366,0.001,-1.02,-0.5725,-0.0125
-1.85,-1.6855,0.1635,1.7675,-1.007,-0.7605,-0.0905,-0.46,0.0345,-0.446,-0.466,0.058,-1.0215,-0.593,-0.0445
-1.8415,-1.7035,0.138,1.7725,-0.99,-0.7825,-0.037,-0.4075,-0.6785,-0.615,-0.531,-0.098,-1.143,-0.572,-0.082
-1.988,-1.7135,0.2735,1.8505,-1.1315,-0.72,0.0815,-0.318,-0.6325,-0.108,-0.6835,-0.103,-1.1665,-0.578,-0.16
-1.81,-1.7075,0.1025,1.7585,-0.9565,-0.802,0.0445,-0.357,-0.0005,0.236,-0.589,-0.2445,-1.182,-0.5525,-0.265
-1.1435,-1.6935,-0.5495,1.4185,-0.2975,-1.1215,-0.1675,-0.5525,-0.1225,-0.1755,-0.1895,-0.503,-1.176,-0.532,-0.328
-1.147,-1.6975,-0.5505,1.422,-0.2985,-1.124,-0.187,-0.548,-0.109,-0.161,-0.2085,-0.537,-1.2045,-0.5285,-0.34
-1.2045,-1.7235,-0.519,1.4635,-0.343,-1.121,-0.2015,-0.5105,-0.131,-0.22,-0.269,-0.597,-1.2685,-0.546,-0.3295
-1.1975,-1.742,-0.5445,1.4695,-0.327,-1.1435,-0.252,-0.505,-0.163,-0.2805,-0.289,-0.6175,-1.2845,-0.5665,-0.3305
-1.2435,-1.767,-0.5235,1.505,-0.3605,-1.145,-0.244,-0.451,-0.2035,-0.3375,-0.3545,-0.698,-1.3545,-0.585,-0.3195
-1.227,-1.7785,-0.552,1.5025,-0.3375,-1.1655,-0.2445,-0.4495,-0.2435,-0.4045,-0.362,-0.6745,-1.344,-0.594,-0.3425
-1.269,-1.7825,-0.5135,1.5255,-0.378,-1.148,-0.229,-0.407,-0.2875,-0.4355,-0.396,-0.7755,-1.4235,-0.596,-0.312
-1.262,-1.7955,-0.5335,1.5285,-0.3645,-1.1645,-0.198,-0.367,-0.229,-0.445,-0.3905,-0.5765,-1.2985,-0.6125,-0.4665
-1.2855,-1.805,-0.5195,1.545,-0.3835,-1.1625,-0.1565,-0.2655,-0.1755,-0.3985,-0.3955,0.064,-0.908,-0.62,-0.6435
-1.2785,-1.8125,-0.5335,1.545,-0.373,-1.173,-0.125,-0.2145,-0.09,-0.3655,-0.3715,0.076,-0.8955,-0.6315,-0.661
-1.2735,-1.8035,-0.53,1.5385,-0.372,-1.167,-0.099,-0.1345,-0.0485,-0.324,-0.3685,0.0445,-0.91,-0.629,-0.7
-1.2625,-1.8045,-0.542,1.533,-0.3605,-1.173,-0.0855,-0.0935,-0.695,-0.3005,-0.3545,0.0665,-0.8885,-0.6385,-0.716
-1.26,-1.81,-0.55,1.5345,-0.355,-1.18,-0.064,-0.0435,-0.8645,-0.233,-0.335,0.04,-0.896,-0.6445,-0.724
-1.2705,-1.825,-0.5545,1.5475,-0.3585,-1.1895,-0.0535,0.0365,-0.7095,-0.191,-0.323,0.0595,-0.8815,-0.6575,-0.754
-1.2805,-1.8395,-0.559,1.5595,-0.361,-1.199,-0.019,-0.5525,-0.7055,-0.122,-0.305,0.0305,-0.891,-0.669,-0.7835
-1.287,-1.8475,-0.5605,1.567,-0.3635,-1.204,-0.023,-0.8145,-0.602,-0.082,-0.292,0.041,-0.877,-0.685,-0.8165
-1.29,-1.8615,-0.5715,1.5755,-0.3595,-1.2165,0.01,-0.6645,-0.593,-0.046,-0.285,0.015,-0.887,-0.6945,-0.849
-1.2885,-1.863,-0.5745,1.5755,-0.3575,-1.219,0.0155,-0.687,-0.5315,-0.009,-0.278,0.018,-0.8815,-0.689,-0.8485
-1.2825,-1.8715,-0.589,1.5765,-0.347,-1.23,0.0465,-0.601,-0.507,0.0095,-0.268,0.007,-0.8855,-0.7285,-0.9165
-1.27,-1.874,-0.604,1.572,-0.333,-1.239,0.054,-0.5925,-0.4675,0.0665,-0.2585,0.008,-0.877,-0.6925,-0.864
-1.2695,-1.877,-0.608,1.573,-0.331,-1.2425,0.0595,-0.562,-0.448,0.0305,-0.253,0.0045,-0.8815,-0.768,-0.998
-1.275,-1.884,-0.609,1.5795,-0.3335,-1.2465,0.093,-0.56,-0.429,0.162,-0.247,0.0025,-0.8685,-0.6245,-0.699
-1.2625,-1.882,-0.6195,1.572,-0.3215,-1.2505,0.0345,-0.5355,-0.406,-0.282,-0.242,0.002,-0.899,-0.4455,-0.2745
-1.2645,-1.878,-0.6135,1.571,-0.326,-1.2455,0.172,-0.5115,-0.388,-0.7965,-0.236,0.001,-0.94,-0.424,-0.188
-1.2725,-1.8765,-0.604,1.574,-0.3345,-1.2405,-0.5135,-0.5005,-0.3685,-0.6865,-0.23,0.005,-0.927,-0.5165,-0.4105
-1.266,-1.8835,-0.6175,1.5745,-0.3245,-1.2505,-0.478,-0.4875,-0.361,-0.7165,-0.228,0.003,-0.9285,-0.762,-0.907
-1.2725,-1.89,-0.6175,1.581,-0.328,-1.2535,0.277,-0.483,-0.3505,-0.69,-0.231,-0.0055,-0.9275,-0.53,-0.4205
-1.2685,-1.8885,-0.62,1.578,-0.3245,-1.2545,-0.4225,-0.4685,-0.342,-0.686,-0.231,-0.0125,-0.93,-0.4295,-0.2035
-1.2805,-1.894,-0.613,1.587,-0.334,-1.2535,-0.7955,-0.463,-0.328,-0.68,-0.234,-0.0195,-0.9375,-0.48,-0.3185
-1.2825,-1.889,-0.6065,1.5855,-0.338,-1.248,-0.722,-0.457,-0.3235,-0.668,-0.2395,-0.028,-0.9425,-0.437,-0.2465
-1.2625,-1.8825,-0.62,1.572,-0.3215,-1.251,-0.7705,-0.4555,-0.316,-0.669,-0.2365,-0.0275,-0.9405,-0.467,-0.2935
-1.282,-1.8965,-0.6145,1.589,-0.334,-1.2555,-0.7275,-0.4475,-0.305,-0.646,-0.231,-0.027,-0.942,-0.464,-0.2625
-1.2915,-1.895,-0.6035,1.593,-0.3445,-1.2495,-0.7355,-0.4395,-0.293,-0.641,-0.22,-0.0195,-0.939,-0.4755,-0.2955
-1.2825,-1.893,-0.6105,1.5875,-0.336,-1.252,-0.7015,-0.434,-0.282,-0.6225,-0.2155,-0.0135,-0.9325,-0.4675,-0.2895
-1.269,-1.8955,-0.6265,1.582,-0.3215,-1.261,-0.7225,-0.4395,-0.2835,-0.6315,-0.2185,-0.018,-0.932,-0.472,-0.2835
-1.271,-1.902,-0.631,1.586,-0.3205,-1.2665,-0.716,-0.442,-0.2825,-0.622,-0.215,-0.0145,-0.926,-0.474,-0.292
-1.2945,-1.917,-0.6225,1.6055,-0.336,-1.2695,-0.7095,-0.4335,-0.2735,-0.616,-0.21,-0.0115,-0.9305,-0.4665,-0.276
-1.299,-1.914,-0.6155,1.6065,-0.342,-1.2645,-0.708,-0.425,-0.263,-0.6045,-0.202,-0.008,-0.9285,-0.4725,-0.3005
-1.281,-1.9105,-0.6295,1.5955,-0.326,-1.27,-0.712,-0.4195,-0.258,-0.5995,-0.196,-0.004,-0.9155,-0.4535,-0.262
-1.282,-1.9145,-0.633,1.598,-0.3245,-1.274,-0.6975,-0.4075,-0.2515,-0.595,-0.197,-0.0075,-0.9205,-0.487,-0.3355
-1.2885,-1.915,-0.6265,1.6015,-0.3315,-1.271,-0.694,-0.392,-0.242,-0.5875,-0.198,-0.0135,-0.9275,-0.7545,-0.913
-1.2805,-1.9185,-0.638,1.5995,-0.3215,-1.2785,-0.7045,-0.3905,-0.2445,-0.5925,-0.1995,-0.015,-0.923,-0.733,-0.8435
-1.277,-1.915,-0.638,1.5955,-0.3195,-1.2765,-0.703,-0.3845,-0.238,-0.5885,-0.1965,-0.0135,-0.919,-0.487,-0.3185
-1.2765,-1.908,-0.6315,1.592,-0.323,-1.27,-0.703,-0.375,-0.2275,-0.58,-0.194,-0.0145,-0.9195,-0.4475,-0.2525
-1.287,-1.905,-0.618,1.5955,-0.335,-1.2615,-0.7005,-0.371,-0.222,-0.5725,-0.1905,-0.012,-0.9225,-0.4795,-0.338
-1.28,-1.9015,-0.622,1.5905,-0.329,-1.262,-0.705,-0.372,-0.2195,-0.568,-0.188,-0.011,-0.9225,-0.4215,-0.22
-1.2665,-1.9015,-0.635,1.5835,-0.316,-1.2685,-0.704,-0.378,-0.226,-0.571,-0.192,-0.012,-0.922,-0.607,-0.607
-1.2825,-1.904,-0.6215,1.593,-0.331,-1.2625,-0.691,-0.362,-0.216,-0.5595,-0.185,-0.007,-0.9235,-0.755,-0.938
-1.2965,-1.915,-0.619,1.6055,-0.339,-1.267,-0.688,-0.352,-0.2075,-0.5535,-0.1815,-0.0055,-0.925,-0.491,-0.357
-1.294,-1.9185,-0.6245,1.606,-0.335,-1.2715,-0.6915,-0.357,-0.21,-0.555,-0.1825,-0.005,-0.923,-0.4585,-0.2725
-1.2835,-1.9115,-0.628,1.597,-0.328,-1.27,-0.692,-0.356,-0.2115,-0.555,-0.1865,-0.0095,-0.924,-0.4675,-0.3255
-1.2695,-1.9085,-0.639,1.5885,-0.3155,-1.2735,-0.6915,-0.3545,-0.216,-0.5585,-0.1955,-0.0145,-0.9245,-0.4515,-0.2825
-1.2805,-1.9195,-0.6385,1.5995,-0.3215,-1.279,-0.675,-0.353,-0.2175,-0.56,-0.196,-0.012,-0.9285,-0.4865,-0.319
-1.295,-1.9275,-0.632,1.611,-0.3315,-1.28,-0.6745,-0.356,-0.2215,-0.5605,-0.1975,-0.0165,-0.935,-0.474,-0.286
-1.2885,-1.9255,-0.637,1.6065,-0.326,-1.281,-0.6835,-0.357,-0.2155,-0.5515,-0.19,-0.015,-0.928,-0.485,-0.3245
-1.2855,-1.914,-0.6285,1.599,-0.3285,-1.271,-0.684,-0.361,-0.209,-0.5465,-0.1865,-0.0165,-0.9255,-0.465,-0.31
-1.286,-1.9015,-0.616,1.5935,-0.335,-1.2585,-0.686,-0.3665,-0.214,-0.549,-0.193,-0.0235,-0.93,-0.467,-0.328
-1.285,-1.91,-0.625,1.5975,-0.3305,-1.2675,-0.679,-0.3685,-0.2175,-0.5465,-0.1885,-0.0205,-0.9285,-0.4735,-0.323
-1.2835,-1.9095,-0.626,1.5965,-0.3295,-1.268,-0.682,-0.373,-0.2075,-0.5375,-0.1825,-0.016,-0.9245,-0.476,-0.3265
-1.2825,-1.9055,-0.623,1.5935,-0.33,-1.264,-0.684,-0.376,-0.1965,-0.5295,-0.1805,-0.0175,-0.9235,-0.4685,-0.3245
-1.28,-1.904,-0.624,1.592,-0.3285,-1.264,-0.683,-0.3725,-0.191,-0.525,-0.1755,-0.0105,-0.918,-0.474,-0.327
-1.286,-1.9,-0.614,1.593,-0.3365,-1.257,-0.6825,-0.369,-0.1885,-0.522,-0.1725,-0.005,-0.9135,-0.4775,-0.3375
-1.2935,-1.914,-0.6205,1.6035,-0.337,-1.2675,-0.682,-0.3785,-0.194,-0.523,-0.172,-0.019,-0.9205,-0.4855,-0.343
-1.2875,-1.923,-0.6355,1.605,-0.3265,-1.279,-0.687,-0.385,-0.1985,-0.5265,-0.1755,-0.0225,-0.9205,-0.4975,-0.338
-1.287,-1.9225,-0.635,1.6045,-0.3265,-1.2785,-0.6865,-0.3925,-0.203,-0.5295,-0.1785,-0.0175,-0.918,-0.4915,-0.3335
-1.2945,-1.9155,-0.6205,1.605,-0.3375,-1.268,-0.684,-0.3885,-0.198,-0.5225,-0.1695,-0.01,-0.9175,-0.474,-0.3295
-1.295,-1.9095,-0.6145,1.602,-0.3405,-1.262,-0.686,-0.381,-0.191,-0.5155,-0.1635,-0.004,-0.917,-0.4635,-0.325
-1.2895,-1.912,-0.6225,1.6005,-0.3335,-1.267,-0.699,-0.3745,-0.1875,-0.5125,-0.161,-0.003,-0.9155,-0.459,-0.316
-1.289,-1.916,-0.627,1.6025,-0.3315,-1.2715,-0.704,-0.354,-0.1835,-0.512,-0.1615,-0.0015,-0.912,-0.467,-0.3215
-1.2895,-1.915,-0.6255,1.602,-0.332,-1.27,-0.7055,-0.339,-0.181,-0.5095,-0.1595,-0.0005,-0.907,-0.4685,-0.318
-1.282,-1.9025,-0.6205,1.592,-0.331,-1.2615,-0.706,-0.32,-0.1765,-0.5055,-0.158,-0.0005,-0.904,-0.4665,-0.3225
-1.279,-1.902,-0.6235,1.5905,-0.328,-1.263,-0.7075,-0.308,-0.169,-0.5005,-0.1515,0.0055,-0.898,-0.4665,-0.3215
-1.278,-1.904,-0.626,1.5905,-0.326,-1.265,-0.711,-0.306,-0.17,-0.502,-0.1505,0.008,-0.895,-0.4695,-0.32
-1.273,-1.9,-0.627,1.5865,-0.323,-1.2635,-0.704,-0.3055,-0.1705,-0.5055,-0.158,0.002,-0.9015,-0.4715,-0.326
-1.277,-1.902,-0.625,1.589,-0.326,-1.2635,-0.7035,-0.31,-0.1685,-0.5055,-0.1575,0.0015,-0.8995,-0.4635,-0.312
-1.2795,-1.911,-0.6315,1.595,-0.324,-1.271,-0.7035,-0.309,-0.1805,-0.5135,-0.1585,0.0015,-0.8965,-0.4795,-0.331
-1.28,-1.9085,-0.6285,1.594,-0.326,-1.2685,-0.6995,-0.313,-0.1725,-0.5085,-0.152,0.0055,-0.8965,-0.4585,-0.295
-1.2825,-1.906,-0.6235,1.594,-0.33,-1.2645,-0.6995,-0.3195,-0.1675,-0.5055,-0.151,0.0055,-0.896,-0.489,-0.3565
-1.2825,-1.9085,-0.6265,1.595,-0.3285,-1.2675,-0.6985,-0.3195,-0.173,-0.5085,-0.1545,0.0025,-0.896,-0.4495,-0.2605
-1.2855,-1.897,-0.6115,1.591,-0.3375,-1.254,-0.6915,-0.315,-0.1675,-0.504,-0.15,0.005,-0.896,-0.5485,-0.4985
-1.2885,-1.894,-0.606,1.591,-0.3415,-1.25,-0.6925,-0.3175,-0.1705,-0.507,-0.1505,0.0035,-0.8985,-0.7605,-0.9595
-1.288,-1.8955,-0.6075,1.5915,-0.3405,-1.2515,-0.7015,-0.3225,-0.1735,-0.51,-0.1535,0.0005,-0.9015,-0.76,-0.9605
-1.2895,-1.896,-0.6065,1.5925,-0.342,-1.251,-0.7015,-0.3245,-0.1755,-0.514,-0.1565,-0.0005,-0.9015,-0.7245,-0.886
-1.2925,-1.8905,-0.598,1.5915,-0.3475,-1.2445,-0.698,-0.3245,-0.172,-0.5115,-0.1535,0.0035,-0.9005,-0.7035,-0.8455
-1.287,-1.8855,-0.5985,1.586,-0.3445,-1.242,-0.694,-0.3215,-0.1685,-0.507,-0.149,0.0075,-0.8985,-0.784,-1.022
-1.276,-1.8905,-0.6145,1.583,-0.331,-1.2525,-0.689,-0.318,-0.165,-0.503,-0.1465,0.01,-0.895,-0.6205,-0.668
-1.272,-1.8945,-0.6225,1.583,-0.325,-1.258,-0.69,-0.3195,-0.1635,-0.5005,-0.146,0.0095,-0.8955,-0.438,-0.271
-1.2805,-1.9005,-0.62,1.59,-0.3305,-1.2605,-0.69,-0.324,-0.1655,-0.5055,-0.149,0.007,-0.8985,-0.4785,-0.3515
-1.2785,-1.8915,-0.613,1.585,-0.3335,-1.252,-0.689,-0.3175,-0.1565,-0.4975,-0.1425,0.013,-0.893,-0.4575,-0.3075
-1.2775,-1.887,-0.6095,1.5815,-0.3345,-1.248,-0.691,-0.314,-0.154,-0.4975,-0.1435,0.013,-0.8885,-0.4695,-0.338
-1.2755,-1.889,-0.6135,1.582,-0.3315,-1.251,-0.689,-0.317,-0.156,-0.503,-0.149,0.011,-0.889,-0.46,-0.33
-1.262,-1.8825,-0.6205,1.572,-0.321,-1.2515,-0.686,-0.3155,-0.1575,-0.502,-0.147,0.015,-0.886,-0.4625,-0.3355
-1.2795,-1.888,-0.6085,1.5835,-0.3355,-1.248,-0.6855,-0.32,-0.1655,-0.51,-0.154,0.0085,-0.892,-0.476,-0.3565
-1.2875,-1.8825,-0.595,1.5845,-0.3465,-1.2385,-0.686,-0.322,-0.1705,-0.514,-0.158,0.0055,-0.8965,-0.4555,-0.329
-1.2735,-1.879,-0.6055,1.576,-0.334,-1.2425,-0.686,-0.3205,-0.176,-0.5215,-0.1615,0.0055,-0.897,-0.4785,-0.3775
-1.2785,-1.8915,-0.613,1.5845,-0.333,-1.252,-0.6865,-0.3265,-0.181,-0.532,-0.172,-0.002,-0.903,-0.4395,-0.2695
-1.281,-1.8905,-0.6095,1.585,-0.336,-1.25,-0.684,-0.3255,-0.182,-0.535,-0.1775,-0.002,-0.904,-0.567,-0.5495
-1.277,-1.888,-0.611,1.582,-0.333,-1.2495,-0.676,-0.3205,-0.1815,-0.531,-0.1725,-0.001,-0.9045,-0.769,-0.9925
-1.261,-1.8885,-0.6275,1.5745,-0.317,-1.258,-0.6775,-0.323,-0.1825,-0.534,-0.1745,-0.0045,-0.9055,-0.742,-0.934
-1.2505,-1.8835,-0.633,1.5665,-0.309,-1.258,-0.68,-0.3265,-0.185,-0.537,-0.1805,-0.0045,-0.905,-0.7485,-0.962
-1.2615,-1.888,-0.6265,1.5745,-0.3175,-1.2575,-0.6745,-0.33,-0.191,-0.541,-0.182,-0.0065,-0.91,-0.752,-0.952
-1.2645,-1.8895,-0.6255,1.5765,-0.3195,-1.2575,-0.6715,-0.336,-0.196,-0.548,-0.1865,-0.007,-0.9125,-0.7555,-0.9525
-1.2695,-1.8875,-0.6175,1.5785,-0.3265,-1.2525,-0.673,-0.3425,-0.1905,-0.54,-0.1825,-0.001,-0.909,-0.746,-0.9615
-1.278,-1.8895,-0.6115,1.5835,-0.3335,-1.2505,-0.673,-0.348,-0.1895,-0.5375,-0.177,-0.0005,-0.908,-0.7405,-0.9535
-1.271,-1.88,-0.6085,1.575,-0.3315,-1.2445,-0.669,-0.3485,-0.1905,-0.5385,-0.176,-0.001,-0.907,-0.751,-0.982
-1.2665,-1.8765,-0.6105,1.571,-0.3285,-1.2435,-0.665,-0.3495,-0.1885,-0.536,-0.176,0.003,-0.9045,-0.732,-0.94
-1.2645,-1.877,-0.6125,1.5705,-0.326,-1.245,-0.663,-0.3575,-0.195,-0.5365,-0.1735,0.009,-0.901,-0.7705,-1.0185
-1.2635,-1.8735,-0.61,1.568,-0.327,-1.2415,-0.672,-0.3725,-0.2045,-0.542,-0.174,0.008,-0.902,-0.5815,-0.615
-1.2595,-1.869,-0.6095,1.564,-0.3255,-1.2395,-0.681,-0.3785,-0.2065,-0.5405,-0.1725,0.008,-0.901,-0.418,-0.2815
-1.245,-1.8555,-0.6105,1.55,-0.3175,-1.233,-0.6975,-0.385,-0.212,-0.5415,-0.172,0.008,-0.898,-0.447,-0.361
-1.2565,-1.8535,-0.5965,1.5545,-0.33,-1.225,-0.693,-0.3975,-0.219,-0.5465,-0.18,0.0015,-0.908,-0.4315,-0.3235
-1.2615,-1.8575,-0.596,1.559,-0.333,-1.2265,-0.6875,-0.395,-0.215,-0.5425,-0.177,0.004,-0.906,-0.445,-0.344
-1.261,-1.852,-0.591,1.556,-0.3355,-1.2215,-0.6985,-0.374,-0.202,-0.5305,-0.166,0.013,-0.8965,-0.438,-0.333
-1.278,-1.8525,-0.5745,1.565,-0.352,-1.2135,-0.701,-0.356,-0.1925,-0.524,-0.1625,0.017,-0.897,-0.439,-0.3425
-1.279,-1.8575,-0.5785,1.568,-0.35,-1.218,-0.71,-0.356,-0.194,-0.53,-0.1695,0.011,-0.8985,-0.4405,-0.337
-1.276,-1.859,-0.5835,1.5675,-0.3465,-1.221,-0.7125,-0.3515,-0.1875,-0.5275,-0.1695,0.0085,-0.899,-0.4405,-0.3375
-1.28,-1.8565,-0.5765,1.568,-0.352,-1.2165,-0.7165,-0.349,-0.1855,-0.5305,-0.171,0.0065,-0.902,-0.4405,-0.3365
-1.284,-1.8555,-0.5715,1.5695,-0.3565,-1.2135,-0.7215,-0.354,-0.193,-0.541,-0.1785,0.002,-0.9065,-0.4355,-0.3375
-1.2815,-1.859,-0.5775,1.57,-0.352,-1.2185,-0.7225,-0.3505,-0.1945,-0.541,-0.1785,0.0035,-0.905,-0.431,-0.3295
-1.2865,-1.8605,-0.574,1.573,-0.3565,-1.217,-0.717,-0.3435,-0.194,-0.539,-0.1755,0.004,-0.9055,-0.437,-0.3315
-1.29,-1.8615,-0.572,1.5755,-0.3595,-1.217,-0.711,-0.3375,-0.1925,-0.5375,-0.172,0.008,-0.9045,-0.436,-0.3195
-1.291,-1.8585,-0.5675,1.5745,-0.362,-1.213,-0.718,-0.339,-0.1935,-0.539,-0.173,0.008,-0.9055,-0.442,-0.33
-1.2895,-1.854,-0.5645,1.5715,-0.363,-1.209,-0.722,-0.343,-0.197,-0.543,-0.1755,0.005,-0.908,-0.43,-0.322
-1.2865,-1.8635,-0.577,1.575,-0.355,-1.2205,-0.7175,-0.3425,-0.1965,-0.5415,-0.1705,0.011,-0.9075,-0.441,-0.324
-1.292,-1.88,-0.588,1.586,-0.3525,-1.234,-0.714,-0.3335,-0.1925,-0.537,-0.1635,0.018,-0.9085,-0.676,-0.8145
-1.289,-1.8865,-0.597,1.5875,-0.346,-1.242,-0.7215,-0.324,-0.196,-0.54,-0.165,0.0165,-0.9085,-0.775,-1.0185
-1.2865,-1.8845,-0.598,1.5855,-0.3445,-1.2415,-0.7205,-0.325,-0.2025,-0.545,-0.1675,0.012,-0.9105,-0.581,-0.5985
-1.288,-1.878,-0.5895,1.583,-0.3495,-1.234,-0.718,-0.335,-0.2035,-0.5475,-0.1695,0.014,-0.9085,-0.403,-0.235
-1.2815,-1.866,-0.5845,1.5735,-0.349,-1.225,-0.727,-0.3455,-0.21,-0.5535,-0.174,0.0135,-0.907,-0.506,-0.456
-1.282,-1.8615,-0.5795,1.5715,-0.3515,-1.2205,-0.7295,-0.349,-0.2185,-0.5585,-0.18,0.007,-0.9085,-0.7215,-0.924
-1.2855,-1.858,-0.5725,1.571,-0.357,-1.215,-0.7275,-0.3545,-0.2265,-0.564,-0.186,0.0005,-0.9105,-0.7265,-0.9425
-1.272,-1.8505,-0.579,1.561,-0.347,-1.2145,-0.715,-0.356,-0.228,-0.5615,-0.1835,0.0015,-0.9085,-0.7185,-0.931
-1.264,-1.853,-0.5895,1.558,-0.3375,-1.221,-0.7125,-0.351,-0.224,-0.5555,-0.18,0.003,-0.9065,-0.735,-0.963
-1.273,-1.856,-0.583,1.564,-0.3455,-1.2195,-0.718,-0.3505,-0.223,-0.555,-0.178,0.0025,-0.908,-0.719,-0.9305
-1.268,-1.8445,-0.576,1.556,-0.346,-1.2105,-0.72,-0.344,-0.217,-0.552,-0.1755,0.009,-0.901,-0.718,-0.939
-1.2655,-1.8375,-0.572,1.551,-0.347,-1.2045,-0.721,-0.336,-0.219,-0.556,-0.1765,0.0085,-0.8985,-0.7135,-0.92
-1.277,-1.841,-0.564,1.5585,-0.3565,-1.2025,-0.716,-0.3365,-0.2225,-0.5595,-0.175,0.01,-0.9,-0.727,-0.9405
-1.2785,-1.839,-0.561,1.5585,-0.3585,-1.2,-0.7145,-0.3415,-0.226,-0.5635,-0.179,0.0105,-0.9035,-0.7325,-0.9585
-1.286,-1.8425,-0.5565,1.564,-0.365,-1.1995,-0.7105,-0.351,-0.2375,-0.5725,-0.19,-0.0045,-0.9145,-0.68,-0.8475
-1.291,-1.849,-0.558,1.5695,-0.3665,-1.2035,-0.7115,-0.36,-0.236,-0.577,-0.193,-0.003,-0.9145,-0.7115,-0.9005
-1.2835,-1.855,-0.5715,1.569,-0.3565,-1.213,-0.7145,-0.3635,-0.236,-0.5795,-0.1925,0.0045,-0.9095,-0.7445,-0.9675
-1.285,-1.858,-0.5725,1.5715,-0.3565,-1.215,-0.7135,-0.3615,-0.2395,-0.585,-0.1945,0.0035,-0.91,-0.717,-0.923
-1.2855,-1.848,-0.5625,1.5665,-0.362,-1.205,-0.714,-0.3655,-0.2415,-0.592,-0.195,0.005,-0.911,-0.7135,-0.9385
-1.2835,-1.847,-0.5635,1.565,-0.36,-1.2055,-0.7145,-0.369,-0.2495,-0.598,-0.198,0.003,-0.9125,-0.6995,-0.921
-1.2855,-1.8625,-0.577,1.5735,-0.3545,-1.22,-0.7215,-0.3745,-0.2625,-0.612,-0.2065,-0.001,-0.916,-0.71,-0.926
-1.282,-1.8645,-0.582,1.573,-0.3505,-1.223,-0.7275,-0.384,-0.2665,-0.618,-0.208,-0.0005,-0.9185,-0.7105,-0.929
-1.2835,-1.8595,-0.576,1.5715,-0.354,-1.218,-0.727,-0.3825,-0.2655,-0.6185,-0.206,0.004,-0.919,-0.704,-0.924
-1.29,-1.853,-0.5625,1.571,-0.364,-1.2075,-0.7295,-0.385,-0.274,-0.6265,-0.2085,0.0045,-0.919,-0.7015,-0.9325
-1.291,-1.85,-0.559,1.57,-0.366,-1.2045,-0.731,-0.391,-0.2815,-0.632,-0.213,0.002,-0.9205,-0.7,-0.9215
-1.2815,-1.8515,-0.57,1.5665,-0.356,-1.211,-0.7345,-0.393,-0.289,-0.635,-0.2135,0.0035,-0.919,-0.715,-0.94
-1.271,-1.839,-0.568,1.5545,-0.352,-1.2035,-0.7405,-0.4005,-0.289,-0.6305,-0.2055,0.0095,-0.914,-0.699,-0.9185
-1.2755,-1.8335,-0.558,1.554,-0.359,-1.196,-0.741,-0.4085,-0.2885,-0.6275,-0.2035,0.0125,-0.914,-0.7135,-0.9465
-1.275,-1.837,-0.5615,1.556,-0.357,-1.199,-0.7385,-0.412,-0.2945,-0.6295,-0.205,0.0115,-0.9155,-0.686,-0.8925
-1.2675,-1.8365,-0.569,1.552,-0.3495,-1.203,-0.738,-0.4155,-0.297,-0.6305,-0.204,0.012,-0.9105,-0.629,-0.75
-1.2775,-1.841,-0.5635,1.559,-0.3575,-1.2025,-0.733,-0.415,-0.2945,-0.629,-0.1995,0.014,-0.9085,-0.701,-0.9065
-1.2935,-1.849,-0.5555,1.571,-0.3695,-1.202,-0.735,-0.424,-0.299,-0.632,-0.203,0.0105,-0.914,-0.713,-0.9505
-1.2965,-1.847,-0.5505,1.5715,-0.3735,-1.199,-0.7425,-0.439,-0.309,-0.6405,-0.2125,0.007,-0.9175,-0.7,-0.9065
-1.3075,-1.844,-0.5365,1.5755,-0.3855,-1.1905,-0.739,-0.441,-0.315,-0.6475,-0.221,0.002,-0.922,-0.707,-0.928
-1.3135,-1.84,-0.5265,1.5765,-0.3935,-1.1835,-0.7375,-0.443,-0.3185,-0.653,-0.225,-0.0005,-0.9235,-0.699,-0.91
-1.2995,-1.836,-0.5365,1.5675,-0.382,-1.1865,-0.738,-0.4365,-0.3165,-0.6525,-0.2225,0.003,-0.92,-0.7095,-0.92
-1.2865,-1.832,-0.5455,1.559,-0.371,-1.189,-0.745,-0.434,-0.3205,-0.6575,-0.222,0.0055,-0.916,-0.7,-0.902
-1.2845,-1.8305,-0.546,1.557,-0.3695,-1.188,-0.751,-0.4345,-0.328,-0.6635,-0.227,0.0045,-0.9175,-0.7055,-0.907
-1.292,-1.8385,-0.546,1.565,-0.3735,-1.192,-0.7415,-0.4205,-0.328,-0.6715,-0.2285,0.0055,-0.922,-0.7055,-0.9055
-1.2945,-1.8365,-0.542,1.5655,-0.3765,-1.189,-0.7425,-0.406,-0.321,-0.664,-0.223,0.014,-0.919,-0.706,-0.9055
-1.2915,-1.8325,-0.541,1.5615,-0.3755,-1.187,-0.7405,-0.4025,-0.318,-0.668,-0.223,0.014,-0.9195,-0.7075,-0.8985
-1.291,-1.836,-0.545,1.563,-0.373,-1.1905,-0.7415,-0.408,-0.325,-0.6735,-0.226,0.0155,-0.921,-0.702,-0.8965
-1.292,-1.834,-0.542,1.563,-0.3755,-1.188,-0.7335,-0.408,-0.3255,-0.678,-0.2245,0.02,-0.921,-0.6965,-0.905
-1.2915,-1.83,-0.5385,1.5605,-0.3765,-1.184,-0.74,-0.419,-0.333,-0.6845,-0.228,0.0195,-0.92,-0.694,-0.9075
-1.299,-1.828,-0.529,1.563,-0.385,-1.1785,-0.7405,-0.439,-0.3455,-0.692,-0.236,0.0165,-0.9215,-0.6925,-0.91
-1.3025,-1.8225,-0.52,1.562,-0.3915,-1.171,-0.7435,-0.457,-0.3565,-0.7095,-0.2445,0.007,-0.928,-0.692,-0.907
-1.2965,-1.815,-0.5185,1.5555,-0.3895,-1.167,-0.747,-0.464,-0.3645,-0.705,-0.25,0.004,-0.928,-0.6935,-0.909
-1.2925,-1.8135,-0.521,1.553,-0.386,-1.1675,-0.7375,-0.465,-0.3685,-0.7275,-0.248,0.0085,-0.928,-0.6905,-0.9095
-1.3045,-1.827,-0.523,1.5655,-0.391,-1.175,-0.7585,-0.485,-0.3875,-0.716,-0.263,-0.0025,-0.938,-0.695,-0.907
-1.307,-1.829,-0.5215,1.568,-0.393,-1.175,-0.7355,-0.493,-0.395,-0.768,-0.269,-0.005,-0.9445,-0.694,-0.8925
-1.293,-1.8125,-0.5195,1.552,-0.387,-1.166,-0.7795,-0.4925,-0.395,-0.707,-0.265,0.0025,-0.933,-0.6885,-0.8955
-1.294,-1.807,-0.513,1.55,-0.3905,-1.16,-0.7185,-0.497,-0.4025,-0.81,-0.27,0.001,-0.947,-0.6855,-0.894
-1.303,-1.807,-0.504,1.5545,-0.3995,-1.1555,-0.795,-0.489,-0.404,-0.5875,-0.2685,0.0045,-0.9285,-0.675,-0.916
-1.3125,-1.8065,-0.4945,1.5595,-0.4095,-1.1505,-0.707,-0.4785,-0.404,0.0795,-0.273,0.0055,-0.871,-0.67,-0.981
-1.319,-1.806,-0.487,1.562,-0.416,-1.1465,-0.821,-0.466,-0.404,0.0935,-0.272,0.0095,-0.87,-0.669,-0.988
-1.3285,-1.8045,-0.476,1.566,-0.4265,-1.1405,-0.648,-0.47,-0.411,0.064,-0.2725,0.012,-0.874,-0.6645,-0.9825
-1.3265,-1.805,-0.4785,1.5655,-0.424,-1.142,-0.185,-0.484,-0.4185,0.0845,-0.282,0.002,-0.88,-0.6655,-0.9815
-1.303,-1.801,-0.4975,1.5515,-0.403,-1.1495,-0.7265,-0.498,-0.432,0.041,-0.292,-0.005,-0.8875,-0.669,-0.976
-1.2885,-1.804,-0.5155,1.5465,-0.387,-1.16,-0.804,-0.518,-0.452,0.049,-0.2995,-0.0075,-0.8855,-0.668,-0.973
-1.283,-1.8095,-0.5265,1.546,-0.3785,-1.168,-0.7675,-0.533,-0.47,0.012,-0.3095,-0.0135,-0.891,-0.6695,-0.9655
-1.272,-1.805,-0.533,1.538,-0.3695,-1.169,-0.775,-0.5435,-0.4835,0.016,-0.321,-0.0165,-0.891,-0.671,-0.968
-1.267,-1.805,-0.538,1.536,-0.365,-1.1715,-0.835,-0.5505,-0.4905,-0.0065,-0.325,-0.0155,-0.8915,-0.6725,-0.9665
-1.2655,-1.802,-0.5365,1.5335,-0.365,-1.1695,-0.499,-0.558,-0.4985,-0.0035,-0.3235,-0.011,-0.888,-0.674,-0.959
-1.2695,-1.7955,-0.526,1.532,-0.372,-1.161,0.134,-0.572,-0.51,-0.0165,-0.324,-0.008,-0.8865,-0.671,-0.9495
-1.29,-1.794,-0.504,1.542,-0.393,-1.149,0.037,-0.5775,-0.5185,-0.017,-0.3225,-0.0015,-0.885,-0.66,-0.9425
-1.2945,-1.7885,-0.494,1.5415,-0.4005,-1.1415,0.0815,-0.5795,-0.5285,-0.029,-0.323,0.006,-0.883,-0.649,-0.9325
-1.296,-1.7865,-0.4905,1.541,-0.403,-1.1385,0.058,-0.5875,-0.539,-0.042,-0.328,0.006,-0.8865,-0.6515,-0.929
-1.295,-1.781,-0.486,1.538,-0.4045,-1.134,0.0505,-0.5905,-0.547,-0.0495,-0.3315,0.0075,-0.887,-0.647,-0.928
-1.291,-1.778,-0.487,1.534,-0.402,-1.1325,0.0625,-0.5985,-0.5565,-0.0655,-0.34,0.0035,-0.8925,-0.6415,-0.925
-1.2865,-1.778,-0.4915,1.532,-0.3975,-1.135,0.038,-0.603,-0.567,-0.077,-0.3455,0.0025,-0.894,-0.6385,-0.9195
-1.2735,-1.7745,-0.501,1.5235,-0.3865,-1.1375,0.0495,-0.614,-0.579,-0.0905,-0.3535,0.002,-0.8955,-0.643,-0.912
-1.2795,-1.7735,-0.494,1.5265,-0.393,-1.134,0.042,-0.6155,-0.5835,-0.099,-0.359,0.0035,-0.9015,-0.6415,-0.904
-1.2885,-1.767,-0.4785,1.5275,-0.405,-1.123,0.0635,-0.6145,-0.5865,-0.1045,-0.3585,0.007,-0.903,-0.6235,-0.8975
-1.291,-1.765,-0.474,1.5275,-0.4085,-1.1195,0.057,-0.624,-0.603,-0.121,-0.369,0.001,-0.908,-0.628,-0.8975
-1.2955,-1.7685,-0.473,1.5315,-0.4115,-1.1205,0.066,-0.636,-0.6195,-0.1415,-0.384,-0.0045,-0.9145,-0.6265,-0.894
-1.2995,-1.774,-0.4745,1.5365,-0.4125,-1.124,0.0595,-0.6525,-0.639,-0.1595,-0.3935,-0.009,-0.9235,-0.617,-0.887
-1.305,-1.774,-0.469,1.5395,-0.4185,-1.1215,0.061,-0.657,-0.6585,-0.1785,-0.4045,-0.0205,-0.9345,-0.6185,-0.883
-1.31,-1.7655,-0.4555,1.537,-0.4275,-1.1105,0.062,-0.6835,-0.679,-0.194,-0.415,-0.0275,-0.9395,-0.609,-0.8815
-1.309,-1.762,-0.453,1.5355,-0.4285,-1.1075,0.057,-0.6765,-0.6885,-0.209,-0.4215,-0.0255,-0.9405,-0.6075,-0.8795
-1.31,-1.7615,-0.4515,1.5355,-0.4295,-1.1065,0.0485,-0.7125,-0.709,-0.228,-0.431,-0.0255,-0.9425,-0.619,-0.878
-1.322,-1.771,-0.449,1.546,-0.4365,-1.11,0.046,-0.697,-0.726,-0.2445,-0.438,-0.0285,-0.95,-0.6245,-0.881
-1.329,-1.776,-0.4465,1.5525,-0.4415,-1.111,0.045,-0.7475,-0.738,-0.2615,-0.443,-0.0315,-0.951,-0.6105,-0.873
-1.327,-1.7715,-0.444,1.549,-0.4415,-1.108,0.0435,-0.7315,-0.773,-0.285,-0.4575,-0.0375,-0.9535,-0.6025,-0.8545
-1.331,-1.7695,-0.4385,1.55,-0.4465,-1.104,0.0395,-0.8065,-0.7735,-0.2995,-0.466,-0.0415,-0.9585,-0.613,-0.856
-1.3235,-1.766,-0.442,1.5445,-0.441,-1.104,0.0355,-0.746,-0.826,-0.319,-0.4715,-0.0395,-0.9585,-0.6125,-0.8475
-1.3285,-1.76,-0.4315,1.544,-0.449,-1.096,0.038,-0.0705,-0.801,-0.3295,-0.475,-0.036,-0.9625,-0.5995,-0.8385
-1.3465,-1.746,-0.3995,1.546,-0.4735,-1.0725,0.0405,0.065,-0.845,-0.331,-0.474,-0.036,-0.9675,-0.5875,-0.8455
-1.337,-1.74,-0.4035,1.5385,-0.467,-1.072,0.0265,-0.0245,-0.8115,-0.347,-0.4785,-0.033,-0.968,-0.595,-0.8445
-1.3395,-1.751,-0.4115,1.545,-0.464,-1.081,0.0095,0.025,-0.898,-0.3565,-0.4815,-0.028,-0.9675,-0.6065,-0.8395
-1.3395,-1.7565,-0.417,1.548,-0.4615,-1.0865,0.0075,-0.025,-0.76,-0.374,-0.49,-0.0325,-0.9715,-0.612,-0.828
-1.3355,-1.7535,-0.4175,1.5445,-0.459,-1.0855,0.005,-0.008,-0.07,-0.3925,-0.4995,-0.034,-0.9735,-0.6125,-0.8205
-1.344,-1.75,-0.406,1.5465,-0.469,-1.078,0.0,-0.041,-0.004,-0.407,-0.5035,-0.03,-0.975,-0.606,-0.8165
-1.344,-1.7445,-0.4005,1.544,-0.472,-1.0725,-0.0095,-0.0405,-0.068,-0.422,-0.5105,-0.0295,-0.9765,-0.602,-0.817
-1.347,-1.7425,-0.3955,1.5445,-0.476,-1.069,-0.017,-0.0705,-0.0485,-0.446,-0.527,-0.037,-0.984,-0.598,-0.8125
-1.353,-1.7445,-0.3915,1.5485,-0.481,-1.068,-0.034,-0.078,-0.1105,-0.4725,-0.55,-0.056,-0.9985,-0.597,-0.7975
-1.3605,-1.7415,-0.381,1.5505,-0.49,-1.0615,-0.0465,-0.0725,-0.09,-0.4885,-0.5635,-0.065,-1.0075,-0.602,-0.794
-1.3585,-1.7485,-0.39,1.553,-0.4845,-1.0695,-0.0515,-0.0775,-0.135,-0.506,-0.5735,-0.064,-1.0095,-0.6105,-0.7895
-1.3575,-1.7545,-0.3975,1.5555,-0.48,-1.076,-0.0605,-0.092,-0.1305,-0.5225,-0.581,-0.061,-1.009,-0.6065,-0.7745
-1.3595,-1.7515,-0.392,1.555,-0.484,-1.0715,-0.062,-0.104,-0.151,-0.538,-0.584,-0.057,-1.013,-0.5935,-0.7675
-1.356,-1.751,-0.395,1.5535,-0.4805,-1.073,-0.0655,-0.114,-0.1635,-0.56,-0.598,-0.062,-1.0225,-0.5885,-0.7605
-1.348,-1.745,-0.397,1.5465,-0.476,-1.071,-0.0735,-0.1355,-0.1875,-0.589,-0.6085,-0.067,-1.0245,-0.5905,-0.75
-1.3485,-1.744,-0.3955,1.546,-0.4765,-1.07,-0.0815,-0.1635,-0.209,-0.599,-0.6155,-0.069,-1.0255,-0.591,-0.7435
-1.362,-1.7515,-0.3895,1.5565,-0.4865,-1.0705,-0.0835,-0.1785,-0.229,-0.636,-0.624,-0.071,-1.037,-0.592,-0.729
-1.3685,-1.7535,-0.3855,1.561,-0.4915,-1.0695,-0.0835,-0.1875,-0.246,-0.63,-0.633,-0.0755,-1.0405,-0.5865,-0.7235
-1.3725,-1.749,-0.3765,1.5605,-0.498,-1.0625,-0.087,-0.216,-0.274,-0.69,-0.6505,-0.083,-1.0485,-0.581,-0.709
-1.37,-1.7385,-0.3685,1.554,-0.501,-1.0535,-0.088,-0.244,-0.3035,-0.6785,-0.6595,-0.0835,-1.0465,-0.5775,-0.698
-1.372,-1.7455,-0.3735,1.5585,-0.4995,-1.0595,-0.0915,-0.2565,-0.323,-0.738,-0.6645,-0.0805,-1.0495,-0.5705,-0.686
-1.376,-1.7585,-0.3825,1.567,-0.497,-1.0705,-0.086,-0.266,-0.3445,-0.7055,-0.6725,-0.0855,-1.053,-0.5795,-0.688
-1.362,-1.7515,-0.3895,1.5565,-0.4865,-1.0705,-0.08,-0.273,-0.3635,-0.8025,-0.6785,-0.0825,-1.06,-0.587,-0.6795
-1.3555,-1.7425,-0.387,1.549,-0.485,-1.0645,-0.09,-0.2725,-0.3805,-1.5115,-0.6885,-0.082,-1.1205,-0.587,-0.606
-1.3625,-1.7385,-0.376,1.55,-0.4935,-1.057,-0.093,-0.2845,-0.3945,-1.6735,-0.694,-0.0885,-1.1395,-0.583,-0.5875
-1.369,-1.738,-0.369,1.5535,-0.5005,-1.0535,-0.094,-0.3015,-0.4085,-1.6135,-0.6995,-0.088,-1.1335,-0.5825,-0.5835
-1.369,-1.739,-0.37,1.554,-0.4995,-1.0545,-0.0965,-0.3185,-0.427,-1.6835,-0.7075,-0.0885,-1.1395,-0.5805,-0.562
-1.368,-1.7385,-0.3705,1.553,-0.499,-1.0545,-0.101,-0.3425,-0.452,-1.6615,-0.714,-0.088,-1.1365,-0.5735,-0.5595
-1.3775,-1.745,-0.3675,1.561,-0.5055,-1.0565,-0.1055,-0.361,-0.47,-1.711,-0.7205,-0.0895,-1.1445,-0.587,-0.557
-1.3935,-1.7555,-0.362,1.574,-0.516,-1.0585,-0.1015,-0.3765,-0.485,-1.6995,-0.725,-0.0905,-1.1515,-0.5945,-0.5625
-1.3995,-1.757,-0.3575,1.578,-0.5215,-1.057,-0.104,-0.397,-0.504,-1.732,-0.7355,-0.0935,-1.1595,-0.591,-0.555
-1.3995,-1.7525,-0.3525,1.5755,-0.5235,-1.0525,-0.1055,-0.422,-0.5255,-1.742,-0.7495,-0.1,-1.1655,-0.5875,-0.555
-1.396,-1.7515,-0.355,1.5735,-0.5205,-1.053,-0.1065,-0.4405,-0.5435,-1.765,-0.7585,-0.1025,-1.168,-0.582,-0.5485
-1.3885,-1.7575,-0.369,1.573,-0.51,-1.0635,-0.116,-0.461,-0.5645,-1.782,-0.7695,-0.1085,-1.1715,-0.59,-0.5255
-1.394,-1.7655,-0.371,1.5795,-0.512,-1.068,-0.119,-0.474,-0.5825,-1.7995,-0.779,-0.112,-1.1765,-0.5925,-0.506
-1.4025,-1.7715,-0.369,1.5865,-0.517,-1.0705,-0.1135,-0.47,-0.5875,-1.812,-0.782,-0.109,-1.1825,-0.583,-0.495
-1.4075,-1.779,-0.372,1.593,-0.518,-1.0755,-0.1135,-0.4755,-0.5995,-1.8225,-0.7885,-0.111,-1.19,-0.5895,-0.498
-1.4,-1.78,-0.3795,1.59,-0.5105,-1.08,-0.124,-0.4875,-0.621,-1.8435,-0.8,-0.116,-1.196,-0.6035,-0.5005
-1.394,-1.7755,-0.382,1.5845,-0.506,-1.079,-0.131,-0.501,-0.638,-1.859,-0.8125,-0.124,-1.201,-0.603,-0.4945
-1.4005,-1.7865,-0.386,1.593,-0.5075,-1.086,-0.1325,-0.5095,-0.6535,-1.878,-0.8245,-0.1305,-1.2065,-0.605,-0.4815
-1.3975,-1.7995,-0.402,1.5985,-0.498,-1.1005,-0.142,-0.516,-0.666,-1.892,-0.8355,-0.138,-1.2115,-0.6075,-0.471
-1.394,-1.7975,-0.4035,1.5955,-0.4955,-1.1005,-0.139,-0.5225,-0.678,-1.9035,-0.848,-0.144,-1.221,-0.6065,-0.4685
-1.403,-1.7925,-0.389,1.5975,-0.507,-1.091,-0.128,-0.5315,-0.691,-1.912,-0.8455,-0.143,-1.2275,-0.612,-0.4745
-1.413,-1.7975,-0.3845,1.605,-0.5145,-1.091,-0.1315,-0.5495,-0.6945,-1.9175,-0.8535,-0.143,-1.231,-0.615,-0.477
-1.4165,-1.8085,-0.392,1.6125,-0.5125,-1.1,-0.136,-0.562,-0.711,-1.9295,-0.85,-0.1495,-1.234,-0.625,-0.476
-1.418,-1.8175,-0.399,1.6175,-0.5095,-1.1085,-0.138,-0.5725,-0.7255,-1.9435,-0.862,-0.1505,-1.2345,-0.638,-0.479
-1.413,-1.826,-0.413,1.6195,-0.5,-1.1195,-0.1425,-0.583,-0.728,-1.948,-0.8595,-0.1485,-1.2315,-0.6405,-0.477
-1.409,-1.83,-0.421,1.6195,-0.4945,-1.1255,-0.1355,-0.593,-0.7395,-1.9545,-0.864,-0.1505,-1.2325,-0.639,-0.476
-1.416,-1.8305,-0.4145,1.623,-0.501,-1.1225,-0.126,-0.601,-0.7455,-1.957,-0.8705,-0.1475,-1.2335,-0.644,-0.4825
-1.419,-1.829,-0.41,1.6235,-0.5045,-1.1195,-0.129,-0.6025,-0.7455,-1.9575,-0.8475,-0.1465,-1.231,-0.6515,-0.489
-1.417,-1.8245,-0.4075,1.6205,-0.505,-1.116,-0.132,-0.6095,-0.752,-1.9625,-0.8895,-0.1495,-1.2315,-0.6615,-0.498
-1.425,-1.8285,-0.4035,1.6265,-0.511,-1.116,-0.13,-0.615,-0.756,-1.968,-0.8295,-0.1495,-1.2245,-0.667,-0.5065
-1.426,-1.8375,-0.4115,1.6315,-0.5075,-1.1245,-0.1235,-0.613,-0.7595,-1.9715,-0.918,-0.147,-1.23,-0.664,-0.4745
-1.4185,-1.845,-0.426,1.6315,-0.4965,-1.1355,-0.123,-0.61,-0.759,-1.969,-0.7935,-0.1425,-1.2195,-0.6595,-0.472
-1.4195,-1.8445,-0.425,1.6315,-0.4975,-1.1345,-0.1305,-0.598,-0.7555,-1.9695,-0.94,-0.1415,-1.233,-0.6485,-0.446
-1.414,-1.84,-0.4265,1.6265,-0.494,-1.133,-0.133,-0.593,-0.7625,-1.971,-0.764,-0.143,-1.215,-0.6485,-0.4615
-1.406,-1.8465,-0.4405,1.626,-0.483,-1.1435,-0.1395,-0.6015,-0.763,-1.969,-0.965,-0.149,-1.235,-0.655,-0.435
-1.4165,-1.855,-0.4385,1.636,-0.4895,-1.147,-0.135,-0.605,-0.7605,-1.969,-0.74,-0.152,-1.2215,-0.6645,-0.4595
-1.4115,-1.861,-0.4495,1.636,-0.481,-1.1555,-0.132,-0.612,-0.768,-1.974,-0.184,-0.1575,-1.175,-0.6755,-0.5285
-1.4045,-1.863,-0.4585,1.6335,-0.473,-1.1605,-0.1335,-0.621,-0.776,-1.982,-1.756,-0.1715,-1.3155,-0.677,-0.3575
-1.416,-1.8605,-0.4445,1.6385,-0.486,-1.153,-0.1275,-0.623,-0.7795,-1.9865,-1.7575,-0.1775,-1.322,-0.675,-0.3635
-1.413,-1.862,-0.449,1.6375,-0.482,-1.1555,-0.1265,-0.621,-0.7745,-1.9825,-1.7705,-0.181,-1.324,-0.67,-0.3605
-1.405,-1.861,-0.456,1.6325,-0.4745,-1.1585,-0.122,-0.617,-0.7705,-1.978,-1.7105,-0.18,-1.3165,-0.6765,-0.37
-1.3975,-1.869,-0.4715,1.633,-0.4635,-1.1705,-0.125,-0.6185,-0.7695,-1.9755,-1.823,-0.1795,-1.3215,-0.69,-0.363
-1.3985,-1.8755,-0.477,1.637,-0.461,-1.1765,-0.1285,-0.6195,-0.7685,-1.971,-1.6025,-0.1805,-1.3,-0.686,-0.393
-1.407,-1.8785,-0.4715,1.6425,-0.468,-1.175,-0.119,-0.616,-0.7585,-1.958,-0.0415,-0.177,-1.168,-0.6795,-0.5775
-1.4095,-1.8845,-0.475,1.6465,-0.4675,-1.18,-0.107,-0.6075,-0.7465,-1.9445,-0.826,-0.174,-1.2355,-0.694,-0.4895
-1.404,-1.8775,-0.4735,1.6405,-0.4655,-1.1755,-0.1045,-0.6065,-0.745,-1.942,-0.915,-0.1715,-1.24,-0.7015,-0.4845
-1.398,-1.8795,-0.4815,1.6385,-0.4585,-1.1805,-0.107,-0.607,-0.743,-1.935,-0.773,-0.166,-1.2205,-0.707,-0.5055
-1.4055,-1.8825,-0.477,1.6435,-0.4645,-1.18,-0.1045,-0.6045,-0.735,-1.92,-0.902,-0.16,-1.226,-0.7095,-0.487
-1.4085,-1.8765,-0.468,1.642,-0.47,-1.1725,-0.11,-0.612,-0.723,-1.906,-0.7565,-0.156,-1.2115,-0.7035,-0.5045
-1.394,-1.871,-0.4775,1.6325,-0.4585,-1.1745,-0.1095,-0.6115,-0.7185,-1.8975,-0.869,-0.1525,-1.2185,-0.705,-0.498
-1.382,-1.8665,-0.485,1.624,-0.4485,-1.176,-0.106,-0.6035,-0.712,-1.889,-0.767,-0.149,-1.2055,-0.7025,-0.516
-1.3845,-1.8665,-0.482,1.625,-0.4515,-1.174,-0.106,-0.5935,-0.694,-1.8685,-0.8235,-0.141,-1.205,-0.702,-0.507
-1.3995,-1.8695,-0.4705,1.634,-0.465,-1.1695,-0.1025,-0.587,-0.6805,-1.8495,-0.7605,-0.135,-1.1965,-0.701,-0.513
-1.4035,-1.872,-0.468,1.6375,-0.468,-1.17,-0.1045,-0.579,-0.669,-1.834,-0.7835,-0.1315,-1.1955,-0.6935,-0.518
-1.3995,-1.871,-0.471,1.635,-0.4645,-1.171,-0.1025,-0.567,-0.6545,-1.8185,-0.761,-0.13,-1.1935,-0.6925,-0.5195
-1.3905,-1.872,-0.4815,1.631,-0.455,-1.1765,-0.103,-0.5605,-0.6415,-1.8015,-0.7565,-0.1255,-1.1865,-0.7005,-0.5225
-1.384,-1.882,-0.498,1.633,-0.4435,-1.19,-0.1045,-0.54,-0.622,-1.785,-0.7505,-0.118,-1.176,-0.7105,-0.5325
-1.3855,-1.8845,-0.499,1.635,-0.4435,-1.1915,-0.1005,-0.524,-0.6005,-1.7605,-0.727,-0.111,-1.166,-0.71,-0.543
-1.386,-1.885,-0.499,1.6355,-0.4435,-1.192,-0.099,-0.5095,-0.5825,-1.7475,-0.723,-0.107,-1.161,-0.717,-0.5455
-1.3775,-1.8925,-0.5145,1.635,-0.432,-1.2035,-0.1,-0.4925,-0.5685,-1.7305,-0.7105,-0.106,-1.154,-0.7295,-0.547
-1.3695,-1.8975,-0.528,1.6335,-0.421,-1.213,-0.1035,-0.488,-0.559,-1.7235,-0.7085,-0.1065,-1.148,-0.731,-0.543
-1.3775,-1.9065,-0.529,1.642,-0.4245,-1.218,-0.0975,-0.4805,-0.5515,-1.7065,-0.7,-0.1065,-1.147,-0.731,-0.5425
-1.3805,-1.9085,-0.5285,1.6445,-0.426,-1.2185,-0.093,-0.467,-0.5365,-1.6925,-0.695,-0.1,-1.143,-0.732,-0.547
-1.367,-1.9045,-0.5375,1.6355,-0.415,-1.221,-0.0905,-0.4565,-0.519,-1.6805,-0.692,-0.105,-1.142,-0.733,-0.549
-1.357,-1.8985,-0.541,1.6275,-0.408,-1.22,-0.087,-0.446,-0.506,-1.6585,-0.6845,-0.1055,-1.137,-0.723,-0.5545
-1.3615,-1.9035,-0.5425,1.632,-0.4095,-1.223,-0.092,-0.4405,-0.493,-1.6615,-0.6765,-0.1025,-1.133,-0.7245,-0.5535
-1.3675,-1.9105,-0.5425,1.6385,-0.413,-1.2265,-0.0855,-0.4305,-0.48,-1.618,-0.673,-0.1055,-1.1315,-0.732,-0.5535
-1.365,-1.898,-0.5325,1.6315,-0.4165,-1.2155,-0.073,-0.4225,-0.463,-1.643,-0.663,-0.1035,-1.134,-0.721,-0.551
-1.36,-1.8945,-0.535,1.627,-0.413,-1.2145,-0.0675,-0.42,-0.443,-1.562,-0.658,-0.1055,-1.13,-0.718,-0.563
-1.3575,-1.895,-0.5375,1.626,-0.4105,-1.216,-0.0645,-0.4085,-0.43,-1.655,-0.651,-0.1055,-1.1385,-0.7135,-0.56
-1.352,-1.891,-0.5385,1.621,-0.407,-1.2145,-0.0605,-0.4,-0.418,-1.3335,-0.6385,-0.102,-1.108,-0.7195,-0.6075
-1.3375,-1.883,-0.5455,1.61,-0.396,-1.2145,-0.061,-0.3845,-0.3995,-0.673,-0.6235,-0.095,-1.0435,-0.73,-0.6975
-1.326,-1.872,-0.546,1.5985,-0.39,-1.209,-0.0605,-0.365,-0.382,-0.6835,-0.605,-0.083,-1.032,-0.731,-0.7085
-1.33,-1.872,-0.542,1.6005,-0.3945,-1.207,-0.054,-0.347,-0.3665,-0.6675,-0.5915,-0.074,-1.0225,-0.7345,-0.718
-1.3315,-1.879,-0.5475,1.605,-0.3925,-1.213,-0.0545,-0.3285,-0.356,-0.6465,-0.5875,-0.0775,-1.019,-0.739,-0.7275
-1.33,-1.8915,-0.5615,1.6105,-0.3845,-1.2265,-0.056,-0.3145,-0.343,-0.6505,-0.5775,-0.077,-1.014,-0.744,-0.7245
-1.3335,-1.8945,-0.5615,1.614,-0.3865,-1.228,-0.0485,-0.3,-0.324,-0.609,-0.559,-0.067,-1.005,-0.735,-0.7275
-1.336,-1.8955,-0.5595,1.6155,-0.3885,-1.2275,-0.04,-0.287,-0.306,-0.609,-0.5465,-0.0625,-1.0005,-0.734,-0.726
-1.339,-1.897,-0.558,1.6175,-0.391,-1.2275,-0.0445,-0.283,-0.2945,-0.5765,-0.538,-0.059,-0.994,-0.7315,-0.7325
-1.333,-1.886,-0.5535,1.609,-0.39,-1.2195,-0.0415,-0.2795,-0.2815,-0.573,-0.529,-0.057,-0.9915,-0.7275,-0.742
-1.3205,-1.873,-0.5525,1.5965,-0.3845,-1.213,-0.038,-0.269,-0.2625,-0.5405,-0.517,-0.0525,-0.98,-0.722,-0.7555
-1.329,-1.877,-0.548,1.603,-0.391,-1.2125,-0.0455,-0.255,-0.24,-0.525,-0.5015,-0.044,-0.9705,-0.726,-0.768
-1.3295,-1.877,-0.5475,1.603,-0.3915,-1.212,-0.0495,-0.237,-0.22,-0.498,-0.4885,-0.0405,-0.9655,-0.7425,-0.7715
-1.308,-1.859,-0.551,1.583,-0.3785,-1.205,-0.049,-0.225,-0.202,-0.481,-0.4765,-0.036,-0.958,-0.7345,-0.776
-1.315,-1.8625,-0.5475,1.5885,-0.384,-1.205,-0.0405,-0.211,-0.185,-0.4605,-0.4645,-0.029,-0.955,-0.729,-0.7855
-1.334,-1.871,-0.5375,1.602,-0.3985,-1.204,-0.042,-0.2005,-0.17,-0.447,-0.4585,-0.0265,-0.9535,-0.7295,-0.7895
-1.3275,-1.867,-0.5395,1.5975,-0.3945,-1.2035,-0.041,-0.1955,-0.163,-0.438,-0.4535,-0.0255,-0.9475,-0.727,-0.785
-1.313,-1.859,-0.546,1.5855,-0.3835,-1.2025,-0.032,-0.1805,-0.142,-0.4195,-0.4415,-0.019,-0.938,-0.72,-0.778
-1.3155,-1.8525,-0.537,1.5835,-0.3895,-1.1945,-0.029,-0.168,-0.1305,-0.404,-0.432,-0.0165,-0.9325,-0.709,-0.7755
-1.3275,-1.861,-0.5335,1.594,-0.397,-1.1975,-0.0235,-0.1605,-0.1125,-0.3935,-0.434,-0.025,-0.938,-0.7115,-0.774
-1.3195,-1.866,-0.5465,1.5925,-0.387,-1.2065,-0.02,-0.149,-0.1045,-0.382,-0.432,-0.0265,-0.936,-0.715,-0.7815
-1.3055,-1.864,-0.5585,1.5845,-0.374,-1.211,-0.023,-0.134,-0.0865,-0.368,-0.423,-0.023,-0.9265,-0.7185,-0.789
-1.295,-1.8645,-0.5695,1.5795,-0.363,-1.217,-0.0285,-0.11,-0.065,-0.3505,-0.4155,-0.0215,-0.92,-0.7225,-0.789
-1.2855,-1.863,-0.5775,1.574,-0.354,-1.2205,-0.0285,-0.088,-0.0595,-0.337,-0.414,-0.0235,-0.9185,-0.724,-0.7935
-1.2835,-1.867,-0.5835,1.575,-0.3505,-1.225,-0.0165,-0.08,-0.0305,-0.325,-0.409,-0.0225,-0.9175,-0.73,-0.7975
-1.2855,-1.866,-0.5805,1.575,-0.3525,-1.2235,-0.0065,-0.0735,-0.045,-0.309,-0.3985,-0.0155,-0.9125,-0.735,-0.8075
-1.2955,-1.863,-0.568,1.579,-0.364,-1.2155,-0.008,-0.0685,0.0125,-0.295,-0.393,-0.0145,-0.9085,-0.7325,-0.822
-1.302,-1.87,-0.568,1.586,-0.3675,-1.219,-0.0015,-0.0665,-0.045,-0.2805,-0.3845,-0.013,-0.9065,-0.7375,-0.828
-1.289,-1.8695,-0.58,1.579,-0.355,-1.225,-0.004,-0.06,0.0785,-0.267,-0.378,-0.011,-0.9005,-0.7435,-0.8325
-1.2805,-1.8655,-0.585,1.573,-0.348,-1.2255,-0.007,-0.07,-0.2295,-0.2565,-0.3745,-0.012,-0.895,-0.738,-0.837
-1.288,-1.864,-0.576,1.576,-0.3565,-1.22,0.001,-0.0595,-0.8825,-0.2415,-0.365,-0.0085,-0.896,-0.73,-0.838
-1.291,-1.8595,-0.569,1.575,-0.361,-1.2145,0.008,-0.0585,-0.8345,-0.2275,-0.359,-0.0065,-0.8955,-0.722,-0.844
-1.293,-1.868,-0.5755,1.58,-0.359,-1.222,0.014,-0.035,-0.827,-0.2145,-0.3555,-0.0095,-0.8975,-0.726,-0.857
-1.2865,-1.8775,-0.591,1.5815,-0.348,-1.234,0.0115,-0.041,-0.827,-0.2025,-0.3525,-0.0115,-0.8985,-0.742,-0.8655
-1.2795,-1.874,-0.594,1.5765,-0.343,-1.234,0.011,-0.0205,-0.7945,-0.191,-0.349,-0.0115,-0.8935,-0.747,-0.8675
-1.282,-1.8695,-0.5875,1.5755,-0.3475,-1.2285,0.0075,-0.0045,-0.8015,-0.1775,-0.343,-0.011,-0.8885,-0.741,-0.8635
-1.279,-1.8635,-0.5845,1.571,-0.3475,-1.224,0.01,0.0075,-0.7665,-0.1645,-0.3325,-0.0025,-0.879,-0.7365,-0.8645
-1.2805,-1.8575,-0.577,1.569,-0.352,-1.2175,0.0145,0.041,-0.7685,-0.1485,-0.3215,0.0055,-0.874,-0.7305,-0.869
-1.28,-1.862,-0.5815,1.571,-0.3495,-1.222,0.0145,0.0115,-0.737,-0.1355,-0.319,0.0035,-0.8755,-0.738,-0.8735
-1.2765,-1.868,-0.5915,1.572,-0.3425,-1.23,0.021,0.115,-0.739,-0.1255,-0.313,0.006,-0.872,-0.747,-0.879
-1.2795,-1.8675,-0.588,1.5735,-0.3465,-1.2275,0.0305,-0.4035,-0.7175,-0.1095,-0.3,0.011,-0.8685,-0.7365,-0.884
-1.279,-1.8735,-0.5945,1.576,-0.3425,-1.234,0.033,-0.86,-0.713,-0.099,-0.295,0.0105,-0.8665,-0.739,-0.8835
-1.2635,-1.868,-0.6045,1.5655,-0.33,-1.236,0.0315,-0.745,-0.7,-0.0855,-0.2865,0.014,-0.8595,-0.745,-0.8845
-1.2605,-1.863,-0.603,1.5615,-0.329,-1.233,0.0355,-0.79,-0.689,-0.0715,-0.2785,0.019,-0.852,-0.743,-0.889
-1.266,-1.873,-0.607,1.569,-0.3295,-1.24,0.035,-0.755,-0.6845,-0.063,-0.273,0.0245,-0.8455,-0.7435,-0.889
-1.268,-1.8775,-0.609,1.5725,-0.33,-1.243,0.037,-0.769,-0.673,-0.0535,-0.2695,0.0245,-0.845,-0.746,-0.8945
-1.2655,-1.878,-0.6125,1.5715,-0.3265,-1.245,0.037,-0.7705,-0.6665,-0.0475,-0.2715,0.0195,-0.849,-0.751,-0.8935
-1.26,-1.872,-0.6115,1.5655,-0.3245,-1.242,0.04,-0.7615,-0.654,-0.0355,-0.266,0.021,-0.847,-0.745,-0.8955
-1.262,-1.8735,-0.6115,1.5675,-0.3255,-1.2425,0.0555,-0.7515,-0.632,-0.012,-0.256,0.0255,-0.843,-0.7395,-0.9085
-1.2695,-1.886,-0.6165,1.5775,-0.3265,-1.2515,0.057,-0.7425,-0.6205,-0.007,-0.255,0.023,-0.8415,-0.752,-0.9185
-1.277,-1.8805,-0.6035,1.5785,-0.337,-1.242,0.0525,-0.7505,-0.616,0.0,-0.2525,0.0225,-0.839,-0.748,-0.9215
-1.2695,-1.8745,-0.6055,1.572,-0.332,-1.24,0.0555,-0.736,-0.609,0.0035,-0.248,0.026,-0.8355,-0.7435,-0.9145
-1.27,-1.878,-0.608,1.574,-0.331,-1.243,0.057,-0.7295,-0.6005,0.0125,-0.243,0.0285,-0.835,-0.7435,-0.9125
-1.2675,-1.8755,-0.608,1.571,-0.33,-1.2415,0.054,-0.712,-0.5945,0.0195,-0.241,0.026,-0.8365,-0.7405,-0.907
-1.26,-1.874,-0.614,1.567,-0.3235,-1.244,0.0575,-0.6995,-0.5905,0.015,-0.241,0.0265,-0.836,-0.7445,-0.904
-1.261,-1.8675,-0.6065,1.564,-0.3275,-1.237,0.0635,-0.681,-0.577,0.0365,-0.2345,0.031,-0.83,-0.74,-0.916
-1.2625,-1.8635,-0.601,1.563,-0.331,-1.2325,0.0575,-0.6855,-0.56,0.0345,-0.232,0.0245,-0.832,-0.7355,-0.923
-1.2685,-1.864,-0.5955,1.566,-0.337,-1.2295,0.0575,-0.6685,-0.5505,0.069,-0.2275,0.0235,-0.831,-0.736,-0.9245
-1.2595,-1.8635,-0.6045,1.561,-0.3275,-1.234,0.057,-0.6535,-0.544,0.041,-0.2285,0.0225,-0.8295,-0.7455,-0.9205
-1.259,-1.869,-0.6105,1.5635,-0.3245,-1.2395,0.0555,-0.6565,-0.5355,0.0895,-0.229,0.0145,-0.828,-0.7435,-0.926
-1.264,-1.8695,-0.6055,1.5665,-0.3295,-1.2375,0.057,-0.652,-0.5275,0.046,-0.223,0.013,-0.8315,-0.737,-0.9225
-1.248,-1.8595,-0.6115,1.5535,-0.3185,-1.2355,0.0575,-0.6535,-0.5255,0.123,-0.226,0.0105,-0.8225,-0.7345,-0.936
-1.2385,-1.8565,-0.618,1.547,-0.3105,-1.237,0.0575,-0.6605,-0.528,-0.0215,-0.2225,0.014,-0.832,-0.729,-0.915
-1.2595,-1.8605,-0.601,1.56,-0.3295,-1.231,0.0575,-0.649,-0.5125,-0.695,-0.2105,0.0235,-0.8885,-0.73,-0.84
-1.2725,-1.8585,-0.586,1.5655,-0.3435,-1.2225,0.054,-0.6295,-0.495,-0.758,-0.202,0.027,-0.894,-0.7325,-0.8385
-1.268,-1.861,-0.5935,1.564,-0.3375,-1.227,0.0515,-0.622,-0.49,-0.7025,-0.1955,0.031,-0.883,-0.74,-0.8435
-1.2675,-1.862,-0.594,1.5645,-0.3375,-1.228,0.051,-0.6155,-0.48,-0.736,-0.19,0.0365,-0.882,-0.743,-0.845
-1.268,-1.864,-0.596,1.566,-0.3365,-1.23,0.0505,-0.6035,-0.466,-0.69,-0.1855,0.0395,-0.875,-0.742,-0.854
-1.27,-1.875,-0.605,1.572,-0.3325,-1.24,0.055,-0.5925,-0.452,-0.707,-0.1825,0.04,-0.8765,-0.7565,-0.854
-1.2555,-1.872,-0.6165,1.5635,-0.3195,-1.2445,0.056,-0.5925,-0.447,-0.6765,-0.1785,0.0415,-0.8735,-0.766,-0.857
-1.251,-1.8655,-0.6145,1.558,-0.3185,-1.24,0.061,-0.5835,-0.4415,-0.691,-0.174,0.0465,-0.8735,-0.754,-0.8545
-1.2535,-1.863,-0.609,1.558,-0.3225,-1.236,0.061,-0.576,-0.4355,-0.6745,-0.1755,0.046,-0.8705,-0.751,-0.86
-1.249,-1.868,-0.619,1.5585,-0.3155,-1.2435,0.0595,-0.5725,-0.431,-0.6825,-0.178,0.044,-0.873,-0.757,-0.857
-1.247,-1.867,-0.62,1.557,-0.3135,-1.2435,0.0575,-0.5685,-0.4265,-0.6775,-0.181,0.041,-0.8785,-0.756,-0.8545
-1.2415,-1.8555,-0.614,1.548,-0.314,-1.2345,0.0595,-0.5635,-0.4235,-0.6745,-0.176,0.0435,-0.8755,-0.748,-0.8545
-1.2455,-1.8535,-0.6085,1.549,-0.3185,-1.231,0.071,-0.556,-0.415,-0.667,-0.172,0.046,-0.875,-0.7385,-0.856
-1.24,-1.8575,-0.618,1.5485,-0.311,-1.238,0.0735,-0.559,-0.415,-0.667,-0.179,0.04,-0.8805,-0.7395,-0.855
-1.2195,-1.861,-0.6415,1.54,-0.289,-1.2515,0.065,-0.5565,-0.415,-0.669,-0.18,0.0365,-0.883,-0.746,-0.851
-1.217,-1.867,-0.6505,1.5415,-0.2835,-1.2585,0.0585,-0.549,-0.408,-0.663,-0.1755,0.0385,-0.8825,-0.7485,-0.858
-1.227,-1.8725,-0.6455,1.549,-0.291,-1.259,0.061,-0.5465,-0.4005,-0.6575,-0.1695,0.043,-0.8785,-0.7545,-0.8655
-1.221,-1.8665,-0.6455,1.5435,-0.2885,-1.256,0.0585,-0.5505,-0.3985,-0.651,-0.165,0.044,-0.8745,-0.7575,-0.8655
-1.218,-1.869,-0.651,1.5435,-0.284,-1.26,0.058,-0.553,-0.398,-0.65,-0.1645,0.0445,-0.8735,-0.757,-0.8665
-1.2315,-1.8805,-0.649,1.556,-0.2915,-1.265,0.0585,-0.5555,-0.394,-0.644,-0.1625,0.047,-0.8755,-0.767,-0.869
-1.236,-1.881,-0.645,1.5585,-0.2955,-1.263,0.0755,-0.5625,-0.3965,-0.6405,-0.1615,0.046,-0.878,-0.7605,-0.8745
-1.2355,-1.88,-0.6445,1.5575,-0.296,-1.262,0.068,-0.572,-0.3985,-0.6385,-0.161,0.044,-0.8785,-0.756,-0.886
-1.232,-1.8765,-0.6445,1.554,-0.294,-1.2605,0.073,-0.575,-0.3955,-0.6335,-0.16,0.0405,-0.878,-0.764,-0.894
-1.2215,-1.8705,-0.649,1.5455,-0.286,-1.26,0.0595,-0.574,-0.3915,-0.625,-0.1565,0.039,-0.875,-0.7645,-0.896
-1.214,-1.8735,-0.66,1.5435,-0.2775,-1.2665,0.075,-0.569,-0.381,-0.615,-0.151,0.0425,-0.871,-0.7675,-0.892
-1.218,-1.8785,-0.66,1.548,-0.2795,-1.269,0.0615,-0.5595,-0.3725,-0.6095,-0.151,0.042,-0.869,-0.7695,-0.8855
-1.223,-1.876,-0.6525,1.549,-0.2855,-1.264,0.0715,-0.555,-0.37,-0.6065,-0.1505,0.0415,-0.8665,-0.766,-0.883
-1.2145,-1.8745,-0.66,1.5445,-0.278,-1.267,0.0715,-0.547,-0.3625,-0.605,-0.1485,0.043,-0.864,-0.754,-0.8875
-1.2245,-1.8755,-0.651,1.55,-0.287,-1.2635,0.072,-0.5375,-0.355,-0.602,-0.148,0.0455,-0.861,-0.755,-0.89
-1.24,-1.868,-0.628,1.554,-0.3065,-1.248,0.118,-0.52,-0.34,-0.5845,-0.136,0.0545,-0.855,-0.7535,-0.8865
-1.226,-1.8605,-0.6345,1.543,-0.296,-1.2475,-0.446,-0.5085,-0.324,-0.572,-0.1285,0.0585,-0.849,-0.754,-0.8875
-1.219,-1.8625,-0.6435,1.5405,-0.288,-1.253,-0.8895,-0.5055,-0.318,-0.5705,-0.1295,0.059,-0.847,-0.767,-0.888
-1.227,-1.8645,-0.6375,1.5455,-0.295,-1.251,-0.705,-0.5,-0.31,-0.565,-0.1255,0.0625,-0.847,-0.762,-0.886
-1.2285,-1.8645,-0.636,1.546,-0.2965,-1.2505,-0.8455,-0.4985,-0.306,-0.563,-0.125,0.062,-0.849,-0.7585,-0.8925
-1.2285,-1.865,-0.637,1.5465,-0.296,-1.251,-0.7165,-0.4965,-0.303,-0.559,-0.122,0.0665,-0.848,-0.759,-0.8975
-1.2205,-1.861,-0.641,1.5405,-0.29,-1.251,-0.8285,-0.5015,-0.303,-0.5575,-0.1215,0.069,-0.8445,-0.759,-0.89
-1.224,-1.87,-0.646,1.547,-0.289,-1.258,-0.681,-0.5035,-0.303,-0.5585,-0.1235,0.067,-0.845,-0.767,-0.8825
-1.238,-1.883,-0.6445,1.5605,-0.297,-1.264,0.0915,-0.496,-0.299,-0.555,-0.1215,0.069,-0.844,-0.7685,-0.8895
-1.231,-1.882,-0.6515,1.5565,-0.29,-1.267,-0.462,-0.4935,-0.3015,-0.555,-0.1195,0.071,-0.8405,-0.768,-0.899
-1.228,-1.883,-0.655,1.5555,-0.287,-1.269,-0.2545,-0.4875,-0.302,-0.556,-0.1205,0.0675,-0.8435,-0.7705,-0.9
-1.2365,-1.8785,-0.6425,1.5575,-0.297,-1.2605,0.2065,-0.4785,-0.303,-0.5555,-0.1225,0.063,-0.8465,-0.7725,-0.901
-1.233,-1.88,-0.647,1.5565,-0.2935,-1.2635,-0.013,-0.4685,-0.306,-0.557,-0.1285,0.059,-0.8455,-0.771,-0.887
-1.226,-1.876,-0.6495,1.551,-0.2885,-1.263,0.113,-0.465,-0.306,-0.563,-0.137,0.054,-0.843,-0.759,-0.866
-1.225,-1.869,-0.644,1.5465,-0.2905,-1.2565,0.0185,-0.4665,-0.317,-0.57,-0.1405,0.0485,-0.8435,-0.747,-0.8605
-1.228,-1.8715,-0.643,1.5495,-0.2925,-1.257,0.077,-0.4675,-0.3115,-0.566,-0.141,0.044,-0.847,-0.745,-0.864
-1.217,-1.8705,-0.6535,1.5435,-0.282,-1.262,0.045,-0.471,-0.298,-0.5565,-0.1365,0.0485,-0.845,-0.7605,-0.8825
-1.2195,-1.881,-0.6615,1.55,-0.2795,-1.271,0.0735,-0.4625,-0.2915,-0.55,-0.13,0.0545,-0.845,-0.7675,-0.8895
-1.23,-1.884,-0.6545,1.5565,-0.288,-1.269,0.08,-0.467,-0.288,-0.547,-0.1285,0.054,-0.8475,-0.7675,-0.887
-1.2185,-1.8775,-0.659,1.548,-0.28,-1.268,0.062,-0.473,-0.2875,-0.5455,-0.128,0.055,-0.847,-0.7685,-0.8935
-1.219,-1.8765,-0.6575,1.5475,-0.281,-1.267,0.0945,-0.471,-0.282,-0.54,-0.123,0.0585,-0.8435,-0.758,-0.898
-1.2205,-1.8825,-0.6625,1.551,-0.279,-1.2725,0.032,-0.482,-0.288,-0.5425,-0.1255,0.0535,-0.846,-0.758,-0.898
-1.214,-1.879,-0.665,1.546,-0.2745,-1.272,0.116,-0.481,-0.284,-0.539,-0.127,0.0505,-0.849,-0.7665,-0.889
-1.211,-1.863,-0.652,1.5365,-0.2795,-1.2575,0.009,-0.468,-0.2715,-0.528,-0.1205,0.058,-0.843,-0.7615,-0.88
-1.21,-1.8555,-0.6455,1.5325,-0.2825,-1.2505,0.155,-0.4615,-0.267,-0.524,-0.1155,0.063,-0.838,-0.7495,-0.877
-1.211,-1.8525,-0.6415,1.5315,-0.285,-1.247,-0.091,-0.4615,-0.268,-0.527,-0.118,0.064,-0.8365,-0.751,-0.873
-1.2075,-1.8555,-0.648,1.531,-0.28,-1.2515,-0.371,-0.4565,-0.2675,-0.527,-0.1185,0.066,-0.835,-0.7575,-0.8735
-1.2085,-1.8615,-0.653,1.535,-0.278,-1.2575,-0.2595,-0.441,-0.2605,-0.521,-0.114,0.068,-0.8365,-0.7585,-0.881
-1.202,-1.8565,-0.6545,1.529,-0.274,-1.2555,-0.81,-0.4335,-0.2585,-0.5195,-0.1135,0.068,-0.837,-0.756,-0.8845
-1.194,-1.8515,-0.6575,1.5225,-0.2685,-1.2545,-0.8085,-0.4395,-0.2615,-0.522,-0.116,0.0665,-0.837,-0.758,-0.8845
-1.2005,-1.849,-0.6485,1.5245,-0.276,-1.249,-0.7215,-0.442,-0.2675,-0.5255,-0.118,0.066,-0.8425,-0.754,-0.8875
-1.203,-1.8535,-0.651,1.528,-0.276,-1.252,-0.869,-0.4465,-0.266,-0.527,-0.117,0.0605,-0.8435,-0.754,-0.89
-1.2185,-1.869,-0.651,1.5435,-0.284,-1.26,-0.2875,-0.4565,-0.2715,-0.536,-0.1245,0.0565,-0.8435,-0.7605,-0.892
-1.2315,-1.877,-0.6455,1.554,-0.2935,-1.2615,0.135,-0.4605,-0.2775,-0.538,-0.124,0.054,-0.846,-0.7585,-0.8965
-1.2265,-1.881,-0.6545,1.5535,-0.286,-1.2675,0.061,-0.4595,-0.2745,-0.536,-0.1225,0.0495,-0.8495,-0.7625,-0.896
-1.2225,-1.887,-0.6645,1.5545,-0.279,-1.276,0.0895,-0.4585,-0.275,-0.5345,-0.122,0.052,-0.8495,-0.7665,-0.893
-1.2105,-1.885,-0.674,1.5475,-0.2685,-1.2795,0.071,-0.46,-0.2775,-0.528,-0.111,0.057,-0.844,-0.7685,-0.893
-1.2095,-1.8835,-0.674,1.5465,-0.268,-1.279,0.083,-0.4655,-0.2855,-0.5325,-0.1145,0.0585,-0.8445,-0.771,-0.894
-1.2185,-1.8965,-0.6785,1.5575,-0.2705,-1.2875,0.0655,-0.474,-0.2925,-0.5395,-0.1255,0.051,-0.851,-0.776,-0.8935
-1.2215,-1.899,-0.6775,1.56,-0.2725,-1.2885,0.08,-0.4725,-0.298,-0.541,-0.1295,0.0425,-0.856,-0.782,-0.8905
-1.22,-1.892,-0.672,1.5555,-0.2745,-1.2815,0.0655,-0.47,-0.295,-0.538,-0.128,0.044,-0.859,-0.778,-0.893
-1.2185,-1.8915,-0.6735,1.555,-0.2725,-1.2825,0.0975,-0.4705,-0.286,-0.533,-0.124,0.0495,-0.856,-0.7785,-0.8935
-1.214,-1.888,-0.674,1.551,-0.2705,-1.281,-0.055,-0.4655,-0.2805,-0.53,-0.1225,0.054,-0.8505,-0.78,-0.8925
-1.206,-1.884,-0.6775,1.545,-0.2645,-1.2805,-0.826,-0.465,-0.2755,-0.529,-0.1225,0.056,-0.8465,-0.7775,-0.9015
-1.214,-1.8935,-0.6795,1.5535,-0.2675,-1.2865,-0.613,-0.473,-0.2805,-0.531,-0.1265,0.0485,-0.8485,-0.7845,-0.9055
-1.223,-1.8985,-0.676,1.5605,-0.274,-1.2875,0.0885,-0.4775,-0.2785,-0.522,-0.1175,0.058,-0.841,-0.7815,-0.9025
-1.2245,-1.8915,-0.6675,1.5575,-0.2785,-1.2795,0.0805,-0.4795,-0.2675,-0.511,-0.1055,0.071,-0.831,-0.766,-0.8955
-1.226,-1.8875,-0.6615,1.5565,-0.2825,-1.2745,0.079,-0.4835,-0.2685,-0.511,-0.1075,0.066,-0.8315,-0.7625,-0.8845
-1.2215,-1.8865,-0.665,1.5535,-0.2785,-1.2755,0.081,-0.4825,-0.2685,-0.514,-0.108,0.069,-0.8275,-0.7695,-0.877
-1.2205,-1.8815,-0.661,1.551,-0.28,-1.2715,0.0735,-0.473,-0.2615,-0.5085,-0.1025,0.074,-0.825,-0.7625,-0.878
-1.23,-1.8855,-0.6555,1.5575,-0.2875,-1.2705,0.078,-0.4715,-0.2625,-0.5055,-0.1,0.0765,-0.8245,-0.765,-0.8805
-1.223,-1.898,-0.6755,1.5605,-0.274,-1.287,0.058,-0.4695,-0.2685,-0.5105,-0.1045,0.0735,-0.822,-0.782,-0.8865
-1.216,-1.899,-0.683,1.5575,-0.267,-1.291,0.0685,-0.4625,-0.2705,-0.5115,-0.104,0.0715,-0.819,-0.7815,-0.8855
-1.219,-1.8955,-0.677,1.557,-0.271,-1.286,0.0545,-0.466,-0.275,-0.5145,-0.108,0.068,-0.8225,-0.7855,-0.8835
-1.2095,-1.8835,-0.674,1.5465,-0.268,-1.279,0.0675,-0.4605,-0.27,-0.5105,-0.104,0.071,-0.8225,-0.776,-0.869
-1.205,-1.8725,-0.667,1.5385,-0.269,-1.27,0.0685,-0.459,-0.264,-0.505,-0.0975,0.079,-0.8205,-0.772,-0.8845
-1.2045,-1.8755,-0.671,1.54,-0.267,-1.2735,0.0635,-0.458,-0.2665,-0.507,-0.1015,0.077,-0.8235,-0.7535,-0.8685
-1.209,-1.8825,-0.6735,1.546,-0.268,-1.278,0.071,-0.451,-0.2645,-0.5095,-0.1045,0.0735,-0.825,-0.7535,-0.8685
-1.2215,-1.895,-0.673,1.558,-0.2745,-1.284,0.0525,-0.452,-0.2625,-0.5115,-0.108,0.0685,-0.8305,-0.7605,-0.872
-1.2245,-1.8925,-0.668,1.558,-0.2785,-1.28,0.09,-0.452,-0.2595,-0.507,-0.102,0.0735,-0.828,-0.759,-0.8695
-1.225,-1.8915,-0.666,1.558,-0.2795,-1.2785,0.0465,-0.4545,-0.259,-0.5055,-0.1025,0.0735,-0.823,-0.7905,-0.917
-1.2225,-1.8925,-0.67,1.557,-0.2765,-1.281,0.0975,-0.4565,-0.2645,-0.5105,-0.109,0.066,-0.8275,-0.629,-0.58
-1.2215,-1.887,-0.6655,1.554,-0.2785,-1.276,0.0305,-0.4585,-0.2655,-0.5095,-0.1065,0.0635,-0.826,-0.4315,-0.1685
-1.2255,-1.8925,-0.667,1.559,-0.2795,-1.28,0.1185,-0.4645,-0.2665,-0.51,-0.1115,0.0625,-0.8245,-0.5585,-0.416
-1.211,-1.886,-0.675,1.548,-0.268,-1.2805,-0.0455,-0.4715,-0.269,-0.5145,-0.118,0.0595,-0.8275,-0.773,-0.8765
-1.191,-1.881,-0.69,1.5355,-0.2505,-1.2855,-0.712,-0.4715,-0.2665,-0.5155,-0.1175,0.06,-0.8245,-0.7835,-0.905
-1.187,-1.879,-0.692,1.533,-0.248,-1.2855,-0.7355,-0.4675,-0.2675,-0.5185,-0.1165,0.063,-0.822,-0.771,-0.8735
-1.1965,-1.876,-0.6795,1.536,-0.259,-1.2775,-0.781,-0.4575,-0.266,-0.52,-0.1175,0.065,-0.824,-0.7805,-0.901
-1.208,-1.884,-0.6765,1.546,-0.266,-1.2805,-0.781,-0.4515,-0.267,-0.519,-0.1165,0.0625,-0.8275,-0.776,-0.8815
-1.2055,-1.883,-0.6775,1.544,-0.264,-1.2805,-0.7855,-0.4515,-0.2705,-0.5245,-0.1195,0.0585,-0.83,-0.7785,-0.8945
-1.192,-1.868,-0.676,1.5295,-0.258,-1.272,-0.766,-0.4465,-0.2665,-0.5255,-0.1195,0.0595,-0.8275,-0.763,-0.8815
-1.1965,-1.8635,-0.667,1.5295,-0.265,-1.265,-0.83,-0.441,-0.2555,-0.5175,-0.1125,0.065,-0.8265,-0.7605,-0.8875
-1.2035,-1.87,-0.6665,1.5365,-0.2685,-1.2685,-0.6245,-0.4345,-0.255,-0.5185,-0.114,0.0645,-0.8315,-0.7515,-0.88
-1.2105,-1.879,-0.6685,1.5445,-0.271,-1.2735,0.065,-0.44,-0.267,-0.528,-0.118,0.06,-0.8385,-0.76,-0.881
-1.231,-1.884,-0.6535,1.557,-0.289,-1.269,0.0745,-0.44,-0.267,-0.5255,-0.1165,0.065,-0.8395,-0.768,-0.883
-1.2315,-1.8755,-0.644,1.5535,-0.294,-1.2595,0.064,-0.4345,-0.277,-0.527,-0.113,0.0605,-0.8405,-0.764,-0.886
-1.2205,-1.8735,-0.6535,1.5465,-0.2835,-1.2635,0.085,-0.4485,-0.2845,-0.528,-0.112,0.071,-0.83,-0.764,-0.891
-1.2195,-1.876,-0.6565,1.5475,-0.2815,-1.266,0.0495,-0.4595,-0.277,-0.5195,-0.1065,0.06,-0.8335,-0.77,-0.893
-1.22,-1.8805,-0.6605,1.55,-0.28,-1.2705,0.067,-0.4665,-0.2805,-0.5175,-0.105,0.078,-0.8185,-0.771,-0.8945
-1.211,-1.8865,-0.6755,1.5485,-0.268,-1.281,0.0495,-0.4745,-0.281,-0.5115,-0.101,0.056,-0.8285,-0.767,-0.9015
-1.205,-1.884,-0.6795,1.544,-0.263,-1.2815,0.0725,-0.475,-0.273,-0.5035,-0.0925,0.094,-0.8035,-0.7705,-0.896
-1.205,-1.88,-0.6745,1.542,-0.2655,-1.277,0.052,-0.4745,-0.266,-0.4985,-0.089,0.055,-0.825,-0.774,-0.9
-1.214,-1.876,-0.662,1.545,-0.276,-1.269,0.071,-0.462,-0.2575,-0.492,-0.0825,-0.0645,-0.8985,-0.7745,-0.9205
-1.223,-1.874,-0.651,1.548,-0.286,-1.2625,0.067,-0.466,-0.262,-0.4975,-0.089,0.072,-0.8155,-0.7715,-0.9035
-1.22,-1.874,-0.654,1.5465,-0.283,-1.264,0.071,-0.472,-0.263,-0.5005,-0.092,0.0855,-0.8045,-0.772,-0.892
-1.224,-1.8825,-0.6585,1.553,-0.283,-1.2705,0.0725,-0.474,-0.264,-0.5055,-0.0955,0.0605,-0.8205,-0.7815,-0.8925
-1.2265,-1.8825,-0.6555,1.5545,-0.286,-1.269,0.073,-0.4795,-0.272,-0.513,-0.105,0.0705,-0.8135,-0.7805,-0.882
-1.222,-1.8775,-0.6555,1.5495,-0.2835,-1.2665,0.0795,-0.47,-0.2625,-0.5055,-0.1,0.056,-0.825,-0.7675,-0.877
-1.215,-1.881,-0.6655,1.5475,-0.275,-1.273,0.076,-0.4755,-0.264,-0.5055,-0.1015,0.0705,-0.8215,-0.764,-0.881
-1.2055,-1.8785,-0.673,1.542,-0.2665,-1.276,0.065,-0.4785,-0.2675,-0.5085,-0.106,0.0535,-0.828,-0.7755,-0.883
-1.2045,-1.8815,-0.677,1.543,-0.264,-1.2795,0.064,-0.472,-0.265,-0.509,-0.11,0.0585,-0.8245,-0.783,-0.8895
-1.208,-1.881,-0.6725,1.5445,-0.268,-1.2765,0.0565,-0.4655,-0.262,-0.507,-0.1095,0.0565,-0.8285,-0.7785,-0.89
-1.21,-1.878,-0.6685,1.5435,-0.271,-1.273,0.0665,-0.456,-0.256,-0.502,-0.1045,0.0655,-0.824,-0.776,-0.8855
-1.2025,-1.884,-0.6815,1.543,-0.2605,-1.283,0.0575,-0.45,-0.258,-0.5045,-0.1055,0.0645,-0.8285,-0.776,-0.885
-1.203,-1.889,-0.686,1.5455,-0.2585,-1.2875,0.0625,-0.444,-0.256,-0.502,-0.1025,0.0685,-0.826,-0.773,-0.8805
-1.2105,-1.8845,-0.674,1.5475,-0.2685,-1.2795,0.056,-0.4425,-0.2545,-0.4975,-0.099,0.07,-0.8285,-0.769,-0.883
-1.21,-1.8855,-0.6755,1.5475,-0.2675,-1.2805,0.056,-0.4565,-0.2665,-0.508,-0.108,0.062,-0.8375,-0.7765,-0.8805
-1.2055,-1.897,-0.691,1.551,-0.2575,-1.294,0.0615,-0.4535,-0.266,-0.5095,-0.111,0.059,-0.84,-0.7815,-0.8755
-1.1935,-1.8895,-0.696,1.5415,-0.249,-1.293,0.0625,-0.4335,-0.258,-0.505,-0.107,0.0595,-0.8385,-0.781,-0.8805
-1.181,-1.881,-0.7,1.531,-0.241,-1.2905,0.0865,-0.4345,-0.2665,-0.514,-0.1145,0.054,-0.8365,-0.7775,-0.887
-1.192,-1.887,-0.6955,1.5395,-0.2485,-1.291,0.046,-0.4345,-0.2625,-0.5125,-0.1135,0.0585,-0.834,-0.78,-0.89
-1.2035,-1.894,-0.6905,1.5485,-0.257,-1.292,0.1225,-0.424,-0.2505,-0.5065,-0.1125,0.051,-0.84,-0.787,-0.8835
-1.19,-1.89,-0.6995,1.5395,-0.2455,-1.2945,0.0055,-0.422,-0.25,-0.5075,-0.1135,0.0565,-0.8295,-0.7745,-0.8705
-1.192,-1.887,-0.695,1.5395,-0.249,-1.291,0.1755,-0.428,-0.2475,-0.508,-0.1105,0.054,-0.827,-0.771,-0.8645
-1.2025,-1.887,-0.6845,1.5445,-0.259,-1.286,-0.2215,-0.4275,-0.256,-0.515,-0.1125,0.068,-0.8225,-0.7715,-0.8665
-1.1995,-1.8905,-0.691,1.545,-0.2545,-1.2905,-0.6335,-0.4365,-0.264,-0.5205,-0.116,0.054,-0.8315,-0.775,-0.878
-1.1925,-1.8965,-0.704,1.544,-0.2445,-1.3,0.0645,-0.448,-0.254,-0.5155,-0.114,0.068,-0.819,-0.7815,-0.88
-1.199,-1.901,-0.702,1.5495,-0.249,-1.3015,0.106,-0.4455,-0.249,-0.51,-0.1085,0.062,-0.824,-0.781,-0.8825
-1.2195,-1.904,-0.6845,1.5615,-0.2675,-1.2945,0.0485,-0.4505,-0.249,-0.5085,-0.1085,0.058,-0.833,-0.7835,-0.88
-1.217,-1.9025,-0.6855,1.5595,-0.266,-1.294,0.1415,-0.457,-0.249,-0.5075,-0.108,0.0725,-0.825,-0.783,-0.8745
-1.2095,-1.897,-0.6875,1.553,-0.261,-1.2925,-0.0215,-0.466,-0.2545,-0.507,-0.105,0.0445,-0.84,-0.777,-0.8805
-1.2195,-1.885,-0.665,1.552,-0.2775,-1.275,-0.029,-0.477,-0.2605,-0.5055,-0.1035,0.1065,-0.8025,-0.772,-0.8805
-1.227,-1.8815,-0.6545,1.5545,-0.2865,-1.268,0.09,-0.4785,-0.2615,-0.504,-0.1015,0.01,-0.863,-0.7705,-0.8985
-1.225,-1.8775,-0.652,1.551,-0.2865,-1.265,0.0845,-0.483,-0.2645,-0.504,-0.098,0.179,-0.7595,-0.767,-0.8775
-1.2105,-1.867,-0.656,1.5385,-0.2775,-1.2615,0.069,-0.4825,-0.267,-0.5,-0.0915,-0.2635,-1.022,-0.774,-0.936
-1.2055,-1.8625,-0.657,1.534,-0.2745,-1.2595,0.0725,-0.465,-0.261,-0.495,-0.089,-0.726,-1.3015,-0.7695,-0.9955
-1.2135,-1.8615,-0.648,1.537,-0.283,-1.255,0.066,-0.441,-0.2545,-0.49,-0.0875,-0.8035,-1.349,-0.7655,-1.011
-1.211,-1.8655,-0.655,1.538,-0.2785,-1.2605,0.078,-0.4305,-0.2505,-0.487,-0.086,-0.5105,-1.167,-0.773,-0.977
-1.205,-1.8715,-0.666,1.538,-0.27,-1.2685,0.062,-0.4295,-0.2525,-0.4935,-0.0895,-0.0515,-0.887,-0.7785,-0.915
-1.2035,-1.8715,-0.668,1.537,-0.268,-1.2695,0.083,-0.4275,-0.249,-0.4895,-0.0855,-0.4415,-1.1255,-0.7795,-0.9675
-1.206,-1.876,-0.6695,1.541,-0.2685,-1.273,0.0505,-0.4415,-0.253,-0.4905,-0.0895,-0.021,-0.8705,-0.7785,-0.9085
-1.2065,-1.8785,-0.672,1.542,-0.2675,-1.275,0.108,-0.4415,-0.253,-0.491,-0.089,0.135,-0.776,-0.7825,-0.889
-1.204,-1.8765,-0.6725,1.54,-0.266,-1.2745,-0.4445,-0.433,-0.241,-0.483,-0.0835,0.021,-0.8495,-0.781,-0.9145
-1.206,-1.885,-0.679,1.5455,-0.2635,-1.282,-0.9245,-0.4345,-0.244,-0.485,-0.083,0.1215,-0.7915,-0.7865,-0.8955
-1.2095,-1.8925,-0.6835,1.5505,-0.2635,-1.288,-0.2685,-0.436,-0.245,-0.486,-0.0855,0.036,-0.8435,-0.7925,-0.901
-1.2115,-1.897,-0.6855,1.554,-0.2635,-1.291,0.1245,-0.4465,-0.249,-0.4935,-0.0955,0.0925,-0.8065,-0.795,-0.8835
-1.214,-1.897,-0.683,1.555,-0.2655,-1.29,0.056,-0.4505,-0.253,-0.4985,-0.0995,0.0395,-0.837,-0.791,-0.8795
-1.216,-1.8945,-0.679,1.555,-0.2685,-1.2865,0.081,-0.4455,-0.2515,-0.499,-0.1025,0.0735,-0.8195,-0.798,-0.889
-1.212,-1.8945,-0.683,1.553,-0.265,-1.289,0.079,-0.4435,-0.2505,-0.5015,-0.104,0.054,-0.8345,-0.8035,-0.9
-1.2095,-1.892,-0.6825,1.5505,-0.2635,-1.2875,0.0625,-0.443,-0.2485,-0.499,-0.1035,0.068,-0.828,-0.7945,-0.9
-1.216,-1.8985,-0.6825,1.557,-0.267,-1.291,0.096,-0.442,-0.251,-0.5005,-0.1035,0.0645,-0.833,-0.7895,-0.897
-1.2105,-1.903,-0.6925,1.5565,-0.2595,-1.2975,0.048,-0.4435,-0.2525,-0.505,-0.1045,0.0605,-0.8345,-0.7815,-0.8795
-1.205,-1.8945,-0.6895,1.5495,-0.258,-1.292,0.1065,-0.4365,-0.254,-0.505,-0.1035,0.0665,-0.833,-0.772,-0.8655
-1.22,-1.8915,-0.6715,1.5555,-0.2745,-1.2815,0.0545,-0.4315,-0.2515,-0.5025,-0.0995,0.068,-0.837,-0.767,-0.87
-1.2195,-1.8955,-0.676,1.5575,-0.272,-1.2855,0.105,-0.4345,-0.2565,-0.508,-0.103,0.071,-0.832,-0.7745,-0.881
-1.2075,-1.8935,-0.6855,1.55,-0.2615,-1.2895,0.0755,-0.4345,-0.2625,-0.511,-0.103,0.0685,-0.829,-0.78,-0.8855
-1.213,-1.8935,-0.68,1.553,-0.267,-1.2865,-0.4035,-0.4305,-0.2595,-0.508,-0.1015,0.0735,-0.828,-0.7785,-0.894
-1.2115,-1.902,-0.6905,1.5565,-0.2605,-1.296,-0.4375,-0.426,-0.2575,-0.508,-0.1065,0.0665,-0.835,-0.79,-0.8965
-1.199,-1.895,-0.696,1.547,-0.252,-1.2955,-0.607,-0.4245,-0.2545,-0.502,-0.1015,0.0725,-0.831,-0.793,-0.8925
-1.1905,-1.8855,-0.695,1.5375,-0.248,-1.29,-0.927,-0.4315,-0.256,-0.5025,-0.102,0.073,-0.8305,-0.776,-0.885
-1.19,-1.8895,-0.7,1.5395,-0.245,-1.2945,-0.438,-0.4415,-0.258,-0.503,-0.1045,0.0665,-0.832,-0.7755,-0.8845
-1.192,-1.8945,-0.7025,1.5435,-0.245,-1.2985,0.1515,-0.445,-0.2525,-0.499,-0.1,0.0695,-0.8245,-0.789,-0.8925
-1.199,-1.8915,-0.6925,1.545,-0.2535,-1.292,-0.3865,-0.454,-0.253,-0.496,-0.097,0.0735,-0.823,-0.7855,-0.8915
-1.2085,-1.8855,-0.677,1.5465,-0.266,-1.281,-0.84,-0.4565,-0.2535,-0.4905,-0.091,0.0795,-0.821,-0.785,-0.9035
-1.2105,-1.8885,-0.6775,1.549,-0.2665,-1.283,-0.791,-0.4625,-0.2555,-0.494,-0.096,0.078,-0.8215,-0.791,-0.912
-1.211,-1.8935,-0.683,1.552,-0.2645,-1.288,-0.4105,-0.4745,-0.258,-0.495,-0.098,0.073,-0.8225,-0.79,-0.9065
-1.213,-1.905,-0.692,1.5585,-0.2605,-1.2985,0.0425,-0.4745,-0.255,-0.493,-0.096,0.077,-0.817,-0.8005,-0.898
-1.2125,-1.9105,-0.698,1.5615,-0.2575,-1.3045,-0.075,-0.4745,-0.255,-0.4905,-0.092,0.0805,-0.8105,-0.8065,-0.8845
-1.2045,-1.9025,-0.698,1.5535,-0.2535,-1.3005,-0.753,-0.4745,-0.2515,-0.484,-0.0825,0.084,-0.805,-0.7915,-0.8785
-1.2085,-1.903,-0.6945,1.5555,-0.2575,-1.2985,-0.504,-0.471,-0.253,-0.486,-0.0865,0.0865,-0.8055,-0.783,-0.879
-1.212,-1.909,-0.6965,1.5605,-0.258,-1.3025,0.1635,-0.466,-0.2545,-0.489,-0.0925,0.072,-0.814,-0.786,-0.878
-1.2055,-1.91,-0.7045,1.5575,-0.2505,-1.3075,0.031,-0.45,-0.2555,-0.4925,-0.101,0.067,-0.817,-0.787,-0.8725
-1.2005,-1.9085,-0.7085,1.5545,-0.2465,-1.3085,0.1205,-0.4375,-0.2555,-0.493,-0.105,0.0495,-0.8275,-0.784,-0.8715
-1.202,-1.9,-0.698,1.551,-0.2525,-1.299,-0.53,-0.432,-0.2465,-0.4855,-0.0975,0.071,-0.8135,-0.783,-0.8695
-1.215,-1.8905,-0.6755,1.5525,-0.27,-1.283,-0.858,-0.425,-0.2395,-0.481,-0.0855,0.063,-0.8215,-0.7795,-0.877
-1.208,-1.888,-0.68,1.548,-0.264,-1.284,-0.688,-0.433,-0.235,-0.478,-0.082,0.116,-0.79,-0.7785,-0.875
-1.1955,-1.8755,-0.68,1.5355,-0.258,-1.278,-0.8955,-0.4355,-0.237,-0.4805,-0.0845,-0.1635,-0.956,-0.7735,-0.9175
-1.2005,-1.873,-0.6725,1.5365,-0.2645,-1.273,-0.369,-0.435,-0.2395,-0.48,-0.0775,-0.8785,-1.39,-0.7705,-1.0155
-1.21,-1.8835,-0.6735,1.5465,-0.2685,-1.2785,0.113,-0.44,-0.2445,-0.485,-0.079,-0.3115,-1.046,-0.7825,-0.941
-1.2165,-1.888,-0.6715,1.552,-0.2725,-1.28,0.0515,-0.44,-0.248,-0.488,-0.083,0.0865,-0.803,-0.7875,-0.8985
-1.2035,-1.8885,-0.6845,1.5455,-0.2595,-1.2865,0.075,-0.4415,-0.2405,-0.4765,-0.069,-0.6455,-1.2495,-0.7885,-0.9995
-1.1915,-1.8945,-0.7025,1.543,-0.2445,-1.2985,0.0755,-0.4445,-0.2435,-0.4775,-0.0625,-0.74,-1.309,-0.8005,-1.012
-1.1945,-1.9,-0.7055,1.547,-0.245,-1.3025,0.072,-0.446,-0.247,-0.482,-0.07,-0.7115,-1.2905,-0.8015,-1.005
-1.2015,-1.897,-0.695,1.549,-0.2535,-1.296,0.0785,-0.442,-0.244,-0.4785,-0.069,-0.728,-1.303,-0.7935,-1.005
-1.205,-1.895,-0.69,1.5495,-0.2575,-1.2925,0.0745,-0.4395,-0.241,-0.4745,-0.0645,-0.723,-1.3005,-0.792,-1.004
-1.203,-1.89,-0.687,1.5465,-0.2585,-1.2885,0.065,-0.438,-0.24,-0.472,-0.0635,-0.6955,-1.283,-0.7935,-0.996
-1.207,-1.8905,-0.6835,1.5485,-0.262,-1.287,0.078,-0.44,-0.2445,-0.477,-0.0695,-0.7855,-1.3405,-0.7905,-1.006
-1.2015,-1.8865,-0.685,1.544,-0.2585,-1.2855,0.045,-0.4435,-0.2455,-0.482,-0.0795,-0.3705,-1.088,-0.7855,-0.947
-1.197,-1.893,-0.696,1.545,-0.251,-1.2945,0.092,-0.442,-0.2465,-0.486,-0.085,0.1505,-0.77,-0.7905,-0.868
-1.206,-1.8945,-0.6885,1.55,-0.259,-1.292,0.0375,-0.438,-0.2465,-0.4865,-0.085,0.0475,-0.8345,-0.7795,-0.8795
-1.211,-1.8825,-0.6715,1.5465,-0.27,-1.277,0.1235,-0.4355,-0.244,-0.485,-0.083,0.098,-0.805,-0.763,-0.879
-1.2085,-1.879,-0.6705,1.5435,-0.2695,-1.275,0.0095,-0.434,-0.2435,-0.4845,-0.0825,0.076,-0.8175,-0.765,-0.8805
-1.2075,-1.886,-0.6785,1.5465,-0.265,-1.282,-0.2545,-0.433,-0.249,-0.488,-0.0865,0.077,-0.818,-0.776,-0.879
-1.2035,-1.8955,-0.692,1.549,-0.256,-1.2935,-0.0985,-0.434,-0.2465,-0.4875,-0.088,0.0805,-0.8155,-0.7815,-0.8845
-1.2015,-1.901,-0.7,1.551,-0.251,-1.3005,-0.068,-0.437,-0.2455,-0.489,-0.088,0.07,-0.82,-0.787,-0.887
-1.2085,-1.9135,-0.7045,1.561,-0.2525,-1.309,0.0875,-0.4405,-0.251,-0.493,-0.091,0.081,-0.8145,-0.799,-0.884
-1.216,-1.9165,-0.7005,1.5665,-0.258,-1.3085,0.0995,-0.4415,-0.2495,-0.49,-0.0895,0.0675,-0.825,-0.799,-0.8855
-1.211,-1.91,-0.699,1.5605,-0.256,-1.3045,0.061,-0.438,-0.257,-0.4925,-0.092,0.079,-0.818,-0.7985,-0.883
-1.198,-1.9005,-0.7025,1.549,-0.248,-1.3015,0.109,-0.4325,-0.25,-0.489,-0.092,0.0705,-0.8215,-0.789,-0.8845
-1.195,-1.897,-0.702,1.546,-0.247,-1.2995,0.0445,-0.431,-0.234,-0.481,-0.087,0.082,-0.8135,-0.782,-0.887
-1.19,-1.9,-0.71,1.5445,-0.24,-1.305,0.1095,-0.434,-0.2395,-0.484,-0.086,0.079,-0.8145,-0.7925,-0.889
-1.192,-1.903,-0.711,1.5475,-0.241,-1.307,0.0445,-0.439,-0.252,-0.4935,-0.088,0.0805,-0.8145,-0.8015,-0.8905
-1.19,-1.8995,-0.709,1.5445,-0.241,-1.304,0.103,-0.4475,-0.2635,-0.5055,-0.1025,0.0685,-0.821,-0.796,-0.888
-1.183,-1.8885,-0.7055,1.5355,-0.2385,-1.297,0.0355,-0.4535,-0.264,-0.5065,-0.105,0.0655,-0.822,-0.778,-0.8825
-1.2015,-1.8945,-0.693,1.548,-0.2545,-1.2935,-0.4125,-0.4405,-0.2565,-0.4995,-0.0945,0.076,-0.8215,-0.777,-0.884
-1.2135,-1.904,-0.691,1.5585,-0.2615,-1.2975,-0.0775,-0.436,-0.2525,-0.4985,-0.0955,0.076,-0.8265,-0.7845,-0.886
-1.2105,-1.9015,-0.6905,1.556,-0.2605,-1.296,0.2305,-0.4425,-0.254,-0.499,-0.095,0.077,-0.8265,-0.7885,-0.887
-1.2035,-1.9045,-0.701,1.554,-0.2515,-1.303,-0.4465,-0.4435,-0.259,-0.5005,-0.096,0.0735,-0.829,-0.796,-0.883
-1.197,-1.8985,-0.7015,1.5475,-0.2475,-1.3,-0.801,-0.452,-0.2595,-0.5,-0.097,0.072,-0.826,-0.788,-0.881
-1.203,-1.873,-0.6695,1.538,-0.267,-1.2715,-0.787,-0.4585,-0.2605,-0.5015,-0.097,0.071,-0.8225,-0.7665,-0.88
-1.205,-1.867,-0.662,1.5355,-0.2715,-1.2645,-0.76,-0.4625,-0.262,-0.501,-0.0965,0.07,-0.8245,-0.767,-0.8835
-1.203,-1.8825,-0.6795,1.5425,-0.262,-1.281,-0.791,-0.4705,-0.2655,-0.5025,-0.095,0.075,-0.8235,-0.7865,-0.891
-1.2115,-1.892,-0.68,1.5515,-0.266,-1.286,-0.7625,-0.4695,-0.264,-0.5,-0.0925,0.073,-0.8255,-0.7925,-0.891
-1.214,-1.8915,-0.677,1.5525,-0.269,-1.284,-0.7655,-0.465,-0.268,-0.5015,-0.0965,0.0685,-0.8305,-0.7885,-0.886
-1.2085,-1.894,-0.685,1.551,-0.262,-1.2895,-0.8205,-0.47,-0.271,-0.5055,-0.102,0.0655,-0.831,-0.786,-0.8835
-1.1995,-1.8985,-0.699,1.549,-0.2505,-1.299,-0.2215,-0.4735,-0.2625,-0.4995,-0.0995,0.0635,-0.828,-0.79,-0.8845
-1.1945,-1.8975,-0.703,1.546,-0.246,-1.3005,-0.4395,-0.465,-0.26,-0.498,-0.0965,0.069,-0.8235,-0.799,-0.884
-1.2,-1.893,-0.693,1.546,-0.254,-1.293,-0.242,-0.457,-0.2575,-0.495,-0.0895,0.076,-0.82,-0.796,-0.884
-1.204,-1.8925,-0.6885,1.548,-0.258,-1.2905,0.2945,-0.4535,-0.2585,-0.495,-0.091,0.075,-0.821,-0.7855,-0.8805
-1.2005,-1.895,-0.6945,1.5475,-0.253,-1.295,-0.5235,-0.45,-0.2585,-0.4965,-0.0945,0.072,-0.8245,-0.788,-0.878
-1.1975,-1.901,-0.703,1.549,-0.2475,-1.302,-0.3535,-0.4465,-0.2555,-0.496,-0.0905,0.0775,-0.8185,-0.7945,-0.881
-1.21,-1.9095,-0.6995,1.5595,-0.2555,-1.3045,0.2115,-0.4425,-0.2525,-0.494,-0.087,0.076,-0.818,-0.7985,-0.8845
-1.2105,-1.9075,-0.697,1.559,-0.257,-1.302,-0.2235,-0.446,-0.25,-0.4935,-0.089,0.079,-0.8185,-0.7955,-0.882
-1.204,-1.8985,-0.6945,1.551,-0.255,-1.2965,-0.872,-0.4525,-0.247,-0.489,-0.082,0.08,-0.8165,-0.786,-0.8795
-1.2075,-1.8985,-0.6915,1.553,-0.2585,-1.295,-0.5875,-0.4595,-0.248,-0.4885,-0.081,0.08,-0.817,-0.7835,-0.876
-1.207,-1.905,-0.698,1.556,-0.255,-1.3015,0.0565,-0.461,-0.2535,-0.4955,-0.0935,0.069,-0.823,-0.7825,-0.8725
-1.2125,-1.915,-0.7025,1.5635,-0.2555,-1.3085,0.116,-0.4585,-0.2565,-0.501,-0.102,0.059,-0.828,-0.79,-0.871
-1.2085,-1.9105,-0.702,1.5595,-0.2535,-1.306,0.047,-0.451,-0.254,-0.501,-0.104,0.064,-0.824,-0.788,-0.8705
-1.202,-1.904,-0.702,1.553,-0.2505,-1.303,0.1325,-0.447,-0.252,-0.497,-0.0995,0.0535,-0.8235,-0.7835,-0.8755
-1.2045,-1.904,-0.699,1.554,-0.253,-1.3015,-0.0375,-0.452,-0.2575,-0.4995,-0.103,0.072,-0.813,-0.7875,-0.8805
-1.1905,-1.8915,-0.701,1.541,-0.245,-1.2965,-0.7195,-0.4505,-0.2555,-0.4975,-0.1015,0.0395,-0.8315,-0.7825,-0.884
-1.18,-1.884,-0.704,1.532,-0.238,-1.294,-0.8255,-0.457,-0.258,-0.4975,-0.101,0.0895,-0.798,-0.7825,-0.874
-1.187,-1.8805,-0.6935,1.5335,-0.247,-1.287,-0.754,-0.459,-0.262,-0.499,-0.103,0.025,-0.84,-0.7805,-0.8845
-1.19,-1.88,-0.69,1.5345,-0.2505,-1.285,-0.8205,-0.4515,-0.2545,-0.4955,-0.0995,0.1295,-0.779,-0.774,-0.8745
-1.1825,-1.8795,-0.697,1.5305,-0.243,-1.288,-0.736,-0.445,-0.246,-0.487,-0.089,-0.2085,-0.986,-0.7835,-0.926
-1.175,-1.883,-0.708,1.529,-0.234,-1.2955,-0.806,-0.4425,-0.243,-0.4815,-0.085,-0.818,-1.3545,-0.795,-1.005
-1.181,-1.89,-0.7085,1.535,-0.2365,-1.2995,-0.7325,-0.443,-0.2455,-0.484,-0.0825,-0.666,-1.2645,-0.788,-0.985
-1.1835,-1.889,-0.706,1.536,-0.239,-1.2975,-0.818,-0.4415,-0.2395,-0.4795,-0.086,-0.84,-1.372,-0.7875,-1.0095
-1.198,-1.899,-0.701,1.5485,-0.249,-1.3,-0.6955,-0.4455,-0.2355,-0.4755,-0.0805,-0.235,-1.002,-0.791,-0.934
-1.204,-1.9025,-0.6985,1.553,-0.253,-1.3005,-0.4915,-0.443,-0.233,-0.4735,-0.0825,-0.0005,-0.8595,-0.7965,-0.9115
-1.1895,-1.8945,-0.705,1.542,-0.2425,-1.3,-0.7755,-0.441,-0.2315,-0.472,-0.0815,-0.761,-1.321,-0.802,-1.0185
-1.19,-1.888,-0.698,1.5385,-0.2465,-1.293,-0.792,-0.4365,-0.2345,-0.474,-0.074,-0.708,-1.291,-0.7895,-1.016
-1.203,-1.8815,-0.679,1.542,-0.262,-1.28,-0.7545,-0.431,-0.2245,-0.4675,-0.082,-0.7245,-1.307,-0.7805,-1.019
-1.2135,-1.8785,-0.6655,1.5455,-0.2745,-1.272,-0.7775,-0.4225,-0.2165,-0.4625,-0.057,-0.72,-1.302,-0.769,-1.0195
-1.1995,-1.8715,-0.672,1.535,-0.264,-1.2715,-0.7515,-0.4145,-0.2165,-0.463,-0.0905,-0.7065,-1.2935,-0.763,-1.011
-1.1945,-1.8705,-0.676,1.532,-0.2595,-1.273,-0.778,-0.405,-0.214,-0.4625,-0.041,-0.7245,-1.3035,-0.772,-1.019
-1.201,-1.8735,-0.6725,1.537,-0.2645,-1.273,-0.755,-0.3925,-0.21,-0.46,-0.101,-0.6955,-1.295,-0.765,-1.001
-1.1945,-1.8735,-0.679,1.534,-0.258,-1.2765,-0.768,-0.394,-0.2105,-0.4615,-0.0105,-0.7235,-1.3025,-0.7575,-1.003
-1.186,-1.876,-0.6895,1.5305,-0.2485,-1.283,-0.765,-0.3975,-0.219,-0.4665,-0.241,-0.7065,-1.3085,-0.759,-0.967
-1.183,-1.871,-0.6875,1.5265,-0.248,-1.279,-0.7745,-0.396,-0.218,-0.463,-0.9255,-0.7195,-1.373,-0.7515,-0.8895
-1.19,-1.8645,-0.675,1.527,-0.258,-1.27,-0.7575,-0.392,-0.217,-0.462,-0.946,-0.7075,-1.3735,-0.745,-0.893
-1.1895,-1.8545,-0.665,1.5215,-0.2625,-1.2595,-0.747,-0.3935,-0.2095,-0.4565,-0.918,-0.712,-1.3775,-0.734,-0.904
-1.1895,-1.842,-0.653,1.5155,-0.2685,-1.2475,-0.7565,-0.402,-0.2,-0.4455,-0.938,-0.7035,-1.372,-0.7285,-0.906
-1.179,-1.832,-0.653,1.5055,-0.263,-1.2425,-0.746,-0.4005,-0.2065,-0.4465,-0.902,-0.696,-1.3655,-0.73,-0.9165
-1.1605,-1.816,-0.656,1.488,-0.2525,-1.236,-0.732,-0.3895,-0.2035,-0.443,-0.9255,-0.6905,-1.3665,-0.715,-0.9245
-1.173,-1.822,-0.649,1.4975,-0.262,-1.2355,-0.733,-0.401,-0.207,-0.4475,-0.9085,-0.701,-1.372,-0.7225,-0.9365
-1.178,-1.8315,-0.654,1.5045,-0.2625,-1.2425,-0.736,-0.4035,-0.2145,-0.455,-0.936,-0.7115,-1.3775,-0.7325,-0.9385
-1.1775,-1.8335,-0.656,1.5055,-0.261,-1.245,-0.729,-0.3915,-0.2065,-0.448,-0.9235,-0.7125,-1.3765,-0.7325,-0.944
-1.1835,-1.839,-0.6555,1.511,-0.264,-1.247,-0.7235,-0.395,-0.2065,-0.4455,-0.931,-0.708,-1.3765,-0.743,-0.9425
-1.1795,-1.8275,-0.648,1.503,-0.266,-1.2375,-0.724,-0.388,-0.199,-0.4375,-0.9185,-0.702,-1.3705,-0.7335,-0.944
-1.183,-1.824,-0.641,1.5035,-0.2715,-1.2325,-0.7255,-0.387,-0.1955,-0.4365,-0.922,-0.703,-1.3715,-0.7295,-0.9475
-1.1815,-1.8345,-0.653,1.5075,-0.264,-1.244,-0.7305,-0.3935,-0.201,-0.444,-0.9275,-0.7075,-1.375,-0.7375,-0.9435
-1.179,-1.84,-0.661,1.509,-0.259,-1.2505,-0.7295,-0.392,-0.1975,-0.443,-0.927,-0.7085,-1.3745,-0.7395,-0.9365
-1.184,-1.841,-0.657,1.512,-0.2635,-1.249,-0.731,-0.3915,-0.1985,-0.443,-0.9285,-0.711,-1.375,-0.7405,-0.926
-1.188,-1.847,-0.659,1.517,-0.2645,-1.253,-0.7395,-0.3955,-0.201,-0.4485,-0.932,-0.7145,-1.379,-0.7425,-0.9155
-1.1845,-1.8495,-0.665,1.517,-0.26,-1.257,-0.7435,-0.399,-0.2075,-0.4525,-0.9345,-0.7165,-1.3795,-0.7405,-0.9155
-1.1835,-1.844,-0.6605,1.5135,-0.2615,-1.2525,-0.7445,-0.401,-0.214,-0.4585,-0.9375,-0.719,-1.379,-0.733,-0.9155
-1.1875,-1.836,-0.6485,1.5115,-0.2695,-1.242,-0.741,-0.3925,-0.201,-0.451,-0.932,-0.7145,-1.3765,-0.728,-0.918
-1.196,-1.8265,-0.63,1.511,-0.283,-1.2285,-0.731,-0.3805,-0.1935,-0.442,-0.924,-0.7085,-1.376,-0.716,-0.924
-1.197,-1.8215,-0.624,1.509,-0.2865,-1.2225,-0.728,-0.3785,-0.2005,-0.449,-0.9275,-0.709,-1.3765,-0.711,-0.926
-1.1885,-1.8135,-0.625,1.5005,-0.282,-1.2195,-0.738,-0.3905,-0.204,-0.451,-0.931,-0.713,-1.379,-0.713,-0.9265
-1.1885,-1.8065,-0.6175,1.4975,-0.286,-1.212,-0.7425,-0.3925,-0.1975,-0.446,-0.926,-0.7095,-1.382,-0.704,-0.929
-1.174,-1.8005,-0.626,1.487,-0.274,-1.213,-0.744,-0.3825,-0.194,-0.4445,-0.921,-0.7015,-1.3755,-0.6935,-0.932
-1.1705,-1.7955,-0.625,1.483,-0.273,-1.21,-0.7485,-0.393,-0.2025,-0.451,-0.9245,-0.701,-1.375,-0.684,-0.9225
-1.18,-1.7945,-0.6145,1.487,-0.2825,-1.2045,-0.7515,-0.402,-0.2025,-0.45,-0.9215,-0.696,-1.373,-0.6825,-0.917
-1.1735,-1.7885,-0.6155,1.481,-0.2795,-1.202,-0.76,-0.4085,-0.2045,-0.448,-0.921,-0.696,-1.371,-0.6805,-0.9135
-1.1765,-1.7805,-0.604,1.4785,-0.2865,-1.192,-0.7765,-0.422,-0.211,-0.4535,-0.925,-0.699,-1.372,-0.668,-0.908
-1.181,-1.778,-0.597,1.479,-0.292,-1.1875,-0.7865,-0.433,-0.213,-0.4515,-0.9195,-0.6925,-1.37,-0.667,-0.915
-1.179,-1.7785,-0.5995,1.4785,-0.29,-1.189,-0.7925,-0.438,-0.2175,-0.451,-0.917,-0.689,-1.369,-0.674,-0.9145
-1.186,-1.78,-0.5945,1.4825,-0.296,-1.187,-0.7995,-0.441,-0.216,-0.4475,-0.9145,-0.6845,-1.3685,-0.674,-0.914
-1.1915,-1.7905,-0.5995,1.491,-0.2965,-1.195,-0.803,-0.4445,-0.2155,-0.443,-0.911,-0.6805,-1.3665,-0.6795,-0.909
-1.1815,-1.8,-0.6185,1.4905,-0.282,-1.209,-0.8115,-0.452,-0.226,-0.4545,-0.92,-0.686,-1.3675,-0.6835,-0.8885
-1.186,-1.8005,-0.6145,1.493,-0.286,-1.2075,-0.81,-0.455,-0.234,-0.4615,-0.9255,-0.69,-1.371,-0.68,-0.884
-1.177,-1.7905,-0.613,1.4835,-0.282,-1.202,-0.811,-0.444,-0.2235,-0.4525,-0.917,-0.682,-1.3645,-0.6755,-0.8865
-1.177,-1.7915,-0.615,1.484,-0.2815,-1.203,-0.814,-0.44,-0.2205,-0.4515,-0.9145,-0.68,-1.365,-0.679,-0.8815
-1.197,-1.8,-0.603,1.4985,-0.2975,-1.2015,-0.8065,-0.44,-0.2275,-0.4605,-0.9235,-0.6905,-1.375,-0.6755,-0.882
-1.18,-1.787,-0.607,1.483,-0.2865,-1.197,-0.8055,-0.4305,-0.228,-0.462,-0.926,-0.6915,-1.375,-0.661,-0.885
-1.1835,-1.7845,-0.6015,1.4835,-0.291,-1.193,-0.813,-0.4355,-0.2305,-0.4645,-0.93,-0.6965,-1.381,-0.6575,-0.881
-1.18,-1.7785,-0.5985,1.479,-0.291,-1.1885,-0.8205,-0.446,-0.232,-0.469,-0.9335,-0.701,-1.3785,-0.6485,-0.873
-1.173,-1.776,-0.603,1.4745,-0.2855,-1.1895,-0.818,-0.4475,-0.237,-0.4685,-0.929,-0.694,-1.3695,-0.647,-0.867
-1.1675,-1.774,-0.6065,1.4705,-0.2805,-1.1905,-0.8205,-0.4535,-0.238,-0.469,-0.9295,-0.6965,-1.373,-0.65,-0.864
-1.1485,-1.764,-0.6155,1.456,-0.2665,-1.1895,-0.8265,-0.461,-0.2415,-0.4705,-0.931,-0.7005,-1.373,-0.6445,-0.8645
-1.167,-1.76,-0.593,1.4635,-0.2875,-1.1765,-0.839,-0.471,-0.2495,-0.473,-0.932,-0.7005,-1.374,-0.6425,-0.8675
-1.1635,-1.75,-0.5865,1.4565,-0.289,-1.168,-0.819,-0.463,-0.239,-0.465,-0.9285,-0.6965,-1.37,-0.642,-0.8695
-1.1515,-1.7525,-0.6005,1.452,-0.276,-1.1765,-0.8275,-0.4525,-0.2255,-0.451,-0.922,-0.694,-1.3625,-0.6465,-0.866
-1.1565,-1.754,-0.597,1.455,-0.28,-1.1755,-0.8075,-0.455,-0.219,-0.4425,-0.914,-0.6885,-1.3565,-0.647,-0.863
-1.155,-1.7495,-0.5945,1.452,-0.2805,-1.172,-0.8245,-0.459,-0.216,-0.437,-0.909,-0.682,-1.3485,-0.6475,-0.869
-1.151,-1.7415,-0.5905,1.446,-0.2805,-1.166,-0.809,-0.458,-0.2105,-0.429,-0.901,-0.672,-1.3365,-0.645,-0.872
-1.1435,-1.735,-0.5915,1.439,-0.276,-1.163,-0.841,-0.459,-0.21,-0.428,-0.8965,-0.6635,-1.3265,-0.6375,-0.8635
-1.141,-1.7305,-0.5895,1.4355,-0.276,-1.16,-0.8275,-0.4605,-0.215,-0.4315,-0.8985,-0.6635,-1.3245,-0.632,-0.8485
-1.143,-1.729,-0.586,1.4355,-0.279,-1.1575,-0.822,-0.4535,-0.2075,-0.4225,-0.886,-0.6515,-1.317,-0.6325,-0.848
-1.137,-1.7455,-0.6085,1.441,-0.2645,-1.177,-0.8515,-0.462,-0.218,-0.4315,-0.8915,-0.6525,-1.3135,-0.652,-0.853
-1.1345,-1.7565,-0.622,1.4455,-0.2565,-1.189,-0.8025,-0.4585,-0.2255,-0.4395,-0.9005,-0.6615,-1.3185,-0.6625,-0.8585
-1.1355,-1.759,-0.6235,1.447,-0.2565,-1.191,-0.915,-0.4455,-0.223,-0.4405,-0.9025,-0.664,-1.322,-0.667,-0.8615
-1.132,-1.7815,-0.6495,1.4565,-0.2415,-1.2155,-0.141,-0.44,-0.227,-0.447,-0.909,-0.6665,-1.3195,-0.6865,-0.8515
-1.136,-1.801,-0.665,1.4685,-0.236,-1.233,-0.0965,-0.4265,-0.224,-0.446,-0.908,-0.6685,-1.3195,-0.7035,-0.8475
-1.1415,-1.8045,-0.663,1.473,-0.2395,-1.234,-0.4175,-0.428,-0.223,-0.449,-0.907,-0.666,-1.3205,-0.707,-0.8435
-1.141,-1.809,-0.668,1.4745,-0.237,-1.2385,0.0725,-0.432,-0.222,-0.447,-0.901,-0.6585,-1.316,-0.703,-0.844
-1.153,-1.815,-0.662,1.484,-0.246,-1.2385,0.018,-0.4375,-0.2275,-0.452,-0.904,-0.6605,-1.3195,-0.713,-0.845
-1.1635,-1.8195,-0.656,1.4915,-0.254,-1.2375,0.004,-0.446,-0.2315,-0.4605,-0.9105,-0.665,-1.327,-0.7245,-0.8505
-1.1535,-1.8225,-0.669,1.488,-0.2425,-1.246,0.065,-0.4515,-0.236,-0.4635,-0.9135,-0.6725,-1.33,-0.7285,-0.857
-1.1485,-1.828,-0.68,1.488,-0.2345,-1.254,-0.0455,-0.452,-0.2385,-0.467,-0.9235,-0.6795,-1.3285,-0.731,-0.849
-1.1415,-1.8205,-0.679,1.4805,-0.2315,-1.2495,0.104,-0.4455,-0.2385,-0.47,-0.916,-0.681,-1.328,-0.7245,-0.8485
-1.141,-1.8055,-0.6645,1.473,-0.2385,-1.235,-0.1605,-0.443,-0.233,-0.465,-0.925,-0.6805,-1.332,-0.7145,-0.8555
-1.155,-1.797,-0.6415,1.4755,-0.257,-1.2195,-0.8135,-0.433,-0.225,-0.455,-0.903,-0.678,-1.333,-0.7055,-0.8635
-1.167,-1.7925,-0.6255,1.4795,-0.271,-1.209,-0.7985,-0.425,-0.22,-0.449,-0.9065,-0.667,-1.331,-0.696,-0.866
-1.1765,-1.8065,-0.63,1.4915,-0.2735,-1.2185,-0.865,-0.432,-0.22,-0.45,-0.8995,-0.677,-1.337,-0.7095,-0.874
-1.1845,-1.8285,-0.644,1.5065,-0.2705,-1.2365,-0.339,-0.4415,-0.232,-0.46,-0.92,-0.689,-1.345,-0.733,-0.8775
-1.1875,-1.8385,-0.651,1.513,-0.2685,-1.245,0.1015,-0.455,-0.2445,-0.4695,-0.925,-0.6925,-1.347,-0.732,-0.8715
-1.1855,-1.852,-0.667,1.5185,-0.2595,-1.2595,0.087,-0.4555,-0.249,-0.4715,-0.926,-0.703,-1.3535,-0.737,-0.8695
-1.1855,-1.861,-0.675,1.523,-0.2555,-1.268,-0.192,-0.443,-0.243,-0.468,-0.946,-0.7025,-1.3565,-0.745,-0.8775
-1.175,-1.86,-0.685,1.5175,-0.245,-1.2725,-0.516,-0.4565,-0.254,-0.4755,-0.9075,-0.7185,-1.361,-0.7535,-0.883
-1.1635,-1.86,-0.697,1.5115,-0.2335,-1.2785,-0.5945,-0.461,-0.258,-0.4795,-1.011,-0.7085,-1.367,-0.759,-0.8665
-1.1835,-1.8645,-0.681,1.5235,-0.2515,-1.2725,-0.878,-0.439,-0.247,-0.477,-0.4675,-0.7315,-1.3425,-0.7515,-0.9355
-1.1935,-1.861,-0.6675,1.527,-0.263,-1.2645,-0.723,-0.4255,-0.2435,-0.4805,0.002,-0.7065,-1.29,-0.7575,-0.993
-1.1865,-1.861,-0.675,1.5235,-0.256,-1.268,-0.84,-0.429,-0.2455,-0.492,-0.1255,-0.7585,-1.3335,-0.7685,-0.9975
-1.1875,-1.869,-0.6815,1.528,-0.253,-1.2755,-0.7365,-0.4245,-0.246,-0.4965,-0.074,-0.7145,-1.304,-0.7685,-0.9985
-1.1815,-1.8665,-0.685,1.5235,-0.2485,-1.276,-0.849,-0.421,-0.2465,-0.4915,-0.0955,-0.761,-1.3325,-0.7685,-1.001
-1.1875,-1.8755,-0.688,1.5315,-0.25,-1.282,-0.6095,-0.4365,-0.2595,-0.503,-0.089,-0.6735,-1.2755,-0.775,-0.991
-1.199,-1.8895,-0.6905,1.544,-0.2545,-1.29,0.0595,-0.446,-0.2655,-0.5065,-0.0985,-0.0355,-0.887,-0.779,-0.8985
-1.209,-1.9015,-0.6925,1.555,-0.2585,-1.297,0.093,-0.452,-0.279,-0.51,-0.1005,0.137,-0.7825,-0.781,-0.864
-1.212,-1.903,-0.691,1.5575,-0.2605,-1.297,0.0685,-0.464,-0.278,-0.5075,-0.092,0.0285,-0.848,-0.777,-0.8785
-1.1995,-1.9005,-0.701,1.5495,-0.2495,-1.3005,0.0705,-0.4745,-0.2665,-0.4995,-0.0995,0.1415,-0.777,-0.786,-0.873
-1.199,-1.903,-0.7045,1.5505,-0.2475,-1.3035,0.0965,-0.4835,-0.2695,-0.498,-0.085,-0.0785,-0.9105,-0.797,-0.9115
-1.1895,-1.8895,-0.7,1.539,-0.245,-1.2945,-0.6795,-0.497,-0.264,-0.4875,-0.0825,-0.7265,-1.3075,-0.79,-0.9955
-1.189,-1.888,-0.699,1.538,-0.245,-1.2935,-0.4605,-0.5,-0.2655,-0.4865,-0.077,-0.7245,-1.306,-0.791,-0.989
-1.196,-1.9005,-0.705,1.548,-0.2455,-1.3025,0.187,-0.495,-0.267,-0.4875,-0.082,-0.736,-1.311,-0.797,-0.9855
-1.191,-1.9025,-0.7115,1.5465,-0.24,-1.307,0.0055,-0.4915,-0.2635,-0.489,-0.079,-0.723,-1.301,-0.7975,-0.9805
-1.2015,-1.9085,-0.707,1.555,-0.2475,-1.308,0.098,-0.4885,-0.2705,-0.495,-0.0805,-0.28,-1.0345,-0.8055,-0.9215
-1.198,-1.904,-0.706,1.551,-0.2465,-1.305,0.041,-0.481,-0.268,-0.494,-0.0785,-0.67,-1.2725,-0.809,-0.9805
-1.1945,-1.8975,-0.703,1.546,-0.246,-1.3005,0.0695,-0.464,-0.2645,-0.496,-0.084,-0.751,-1.322,-0.8005,-0.991
-1.1935,-1.9035,-0.71,1.548,-0.242,-1.3065,0.061,-0.4485,-0.2645,-0.498,-0.0855,-0.608,-1.231,-0.8015,-0.964
-1.1885,-1.8975,-0.709,1.5425,-0.24,-1.303,0.0575,-0.4285,-0.2595,-0.4945,-0.084,-0.8035,-1.346,-0.804,-0.992
-1.1945,-1.895,-0.7005,1.5445,-0.247,-1.298,0.0705,-0.4265,-0.2595,-0.495,-0.086,-0.655,-1.258,-0.8025,-0.9775
-1.192,-1.8955,-0.7035,1.5435,-0.2445,-1.2995,0.0605,-0.431,-0.2545,-0.4935,-0.084,-0.8295,-1.364,-0.799,-0.9995
-1.193,-1.8985,-0.706,1.5455,-0.2435,-1.3025,0.0795,-0.4265,-0.2575,-0.497,-0.088,-0.4965,-1.1595,-0.8055,-0.9585
-1.1935,-1.8975,-0.704,1.545,-0.245,-1.3005,0.07,-0.4355,-0.2585,-0.497,-0.089,-0.2785,-1.0265,-0.8075,-0.929
-1.1895,-1.8905,-0.701,1.54,-0.245,-1.2955,0.075,-0.4445,-0.25,-0.491,-0.0825,-0.838,-1.3625,-0.7985,-0.996
-1.1955,-1.8955,-0.6995,1.5455,-0.248,-1.2975,0.0665,-0.451,-0.257,-0.4985,-0.0895,-0.1945,-0.969,-0.7985,-0.9065
-1.1925,-1.8935,-0.7005,1.5425,-0.2465,-1.297,0.0715,-0.46,-0.2635,-0.502,-0.0925,0.118,-0.7785,-0.793,-0.864
-1.184,-1.8875,-0.7035,1.5355,-0.2405,-1.2955,0.0625,-0.457,-0.2635,-0.5015,-0.088,-0.705,-1.279,-0.786,-0.972
-1.1895,-1.8895,-0.7005,1.539,-0.245,-1.295,0.0685,-0.4565,-0.2665,-0.5075,-0.0915,-0.69,-1.272,-0.791,-0.976
-1.192,-1.8925,-0.7005,1.542,-0.246,-1.2965,0.066,-0.458,-0.268,-0.5105,-0.0965,-0.021,-0.8625,-0.795,-0.887
-1.1965,-1.8945,-0.698,1.5455,-0.2495,-1.296,0.0645,-0.4475,-0.262,-0.506,-0.097,0.112,-0.783,-0.796,-0.8755
-1.1995,-1.903,-0.7035,1.551,-0.2485,-1.3035,0.065,-0.4425,-0.262,-0.507,-0.097,0.0505,-0.821,-0.801,-0.89
-1.197,-1.911,-0.7135,1.554,-0.242,-1.312,0.067,-0.4405,-0.264,-0.506,-0.0945,0.0915,-0.795,-0.8055,-0.882
-1.2085,-1.915,-0.7065,1.5615,-0.2515,-1.3105,0.073,-0.445,-0.257,-0.4975,-0.0915,0.063,-0.818,-0.813,-0.901
-1.2075,-1.924,-0.7165,1.5655,-0.246,-1.32,0.076,-0.4525,-0.261,-0.4985,-0.0965,0.077,-0.8105,-0.818,-0.8795
-1.1935,-1.924,-0.731,1.5585,-0.2315,-1.3275,0.0785,-0.4525,-0.2645,-0.4965,-0.0955,0.067,-0.8155,-0.8275,-0.8905
-1.201,-1.924,-0.723,1.562,-0.2395,-1.323,0.08,-0.458,-0.262,-0.4925,-0.0905,0.081,-0.8095,-0.808,-0.8655
-1.2015,-1.918,-0.7165,1.5595,-0.2425,-1.317,0.0845,-0.46,-0.261,-0.4905,-0.086,0.081,-0.8085,-0.8135,-0.8935
-1.193,-1.9185,-0.725,1.5555,-0.234,-1.3215,0.0785,-0.463,-0.265,-0.4915,-0.085,0.086,-0.8035,-0.8025,-0.8655
-1.1965,-1.9305,-0.734,1.563,-0.231,-1.3325,0.069,-0.4625,-0.269,-0.496,-0.0915,0.0785,-0.8085,-0.8295,-0.8995
-1.197,-1.9295,-0.7325,1.563,-0.2325,-1.331,0.068,-0.4545,-0.263,-0.4905,-0.084,0.084,-0.806,-0.808,-0.8635
-1.2015,-1.925,-0.723,1.563,-0.2395,-1.324,0.069,-0.449,-0.263,-0.488,-0.079,0.092,-0.802,-0.8265,-0.9065
-1.207,-1.921,-0.7135,1.5635,-0.247,-1.3175,0.074,-0.4425,-0.2645,-0.49,-0.0785,0.0885,-0.8045,-0.8045,-0.868
-1.2065,-1.9255,-0.719,1.566,-0.244,-1.3225,0.0755,-0.446,-0.2645,-0.4905,-0.076,0.0925,-0.8025,-0.5455,-0.2965
-1.2075,-1.9335,-0.726,1.5705,-0.241,-1.3295,0.082,-0.4465,-0.258,-0.4855,-0.0755,0.094,-0.8045,-0.709,-0.6265
-1.2125,-1.94,-0.7275,1.576,-0.243,-1.334,0.077,-0.438,-0.251,-0.481,-0.0775,0.0925,-0.807,-0.8655,-0.9635
-1.212,-1.938,-0.726,1.575,-0.243,-1.332,0.0795,-0.4405,-0.256,-0.489,-0.086,0.08,-0.8125,-0.8015,-0.83
-1.214,-1.93,-0.716,1.5715,-0.249,-1.323,0.078,-0.445,-0.258,-0.493,-0.0895,0.076,-0.817,-0.8315,-0.914
-1.2095,-1.9245,-0.7145,1.5665,-0.2475,-1.3195,0.0765,-0.446,-0.259,-0.4955,-0.091,0.075,-0.8195,-0.8055,-0.866
-1.1995,-1.9155,-0.7165,1.557,-0.242,-1.316,0.078,-0.4555,-0.266,-0.5015,-0.0965,0.072,-0.8175,-0.8185,-0.897
-1.2045,-1.9155,-0.711,1.56,-0.247,-1.3135,0.07,-0.453,-0.2635,-0.5,-0.098,0.0715,-0.8165,-0.8085,-0.8725
-1.2015,-1.9065,-0.7045,1.554,-0.249,-1.3055,0.0955,-0.4435,-0.2565,-0.4935,-0.0915,0.078,-0.814,-0.8055,-0.889
-1.204,-1.904,-0.7,1.554,-0.252,-1.302,0.0635,-0.4365,-0.253,-0.491,-0.089,0.0835,-0.813,-0.798,-0.881
-1.207,-1.9075,-0.7,1.557,-0.254,-1.3035,0.107,-0.433,-0.2505,-0.4875,-0.0845,0.0865,-0.8075,-0.7995,-0.8825
-1.204,-1.9075,-0.7035,1.5555,-0.2505,-1.3055,0.0375,-0.4345,-0.25,-0.486,-0.0845,0.0845,-0.8035,-0.7975,-0.8805
-1.2185,-1.9235,-0.705,1.571,-0.257,-1.314,0.1395,-0.431,-0.2535,-0.4945,-0.0955,0.0755,-0.813,-0.8035,-0.8795
-1.2125,-1.929,-0.7165,1.5705,-0.248,-1.323,-0.083,-0.4235,-0.249,-0.4935,-0.0915,0.08,-0.809,-0.8175,-0.889
-1.206,-1.938,-0.732,1.572,-0.2375,-1.335,-0.754,-0.4185,-0.244,-0.491,-0.089,0.0815,-0.807,-0.829,-0.892
-1.215,-1.946,-0.731,1.5805,-0.2425,-1.3385,-0.759,-0.4085,-0.2405,-0.4915,-0.0925,0.0765,-0.8105,-0.83,-0.9025
-1.2125,-1.9405,-0.728,1.5765,-0.2425,-1.334,-0.7345,-0.3965,-0.2305,-0.4895,-0.095,0.0695,-0.8145,-0.819,-0.892
-1.216,-1.934,-0.7185,1.5745,-0.249,-1.326,-0.7555,-0.3905,-0.227,-0.489,-0.0985,0.0635,-0.822,-0.8275,-0.9165
-1.2175,-1.9285,-0.711,1.5725,-0.2535,-1.32,-0.7125,-0.374,-0.2205,-0.485,-0.0935,0.068,-0.8225,-0.8035,-0.879
-1.225,-1.9295,-0.704,1.577,-0.2605,-1.317,-0.7225,-0.365,-0.2145,-0.4825,-0.0905,0.071,-0.8265,-0.8415,-0.973
-1.2365,-1.9325,-0.696,1.5845,-0.2705,-1.3145,-0.694,-0.3685,-0.225,-0.494,-0.1015,0.061,-0.837,-0.6855,-0.635
-1.2305,-1.9305,-0.7,1.5805,-0.2655,-1.3155,-0.704,-0.3625,-0.228,-0.502,-0.116,0.048,-0.843,-0.499,-0.2505
-1.227,-1.9155,-0.6885,1.571,-0.2695,-1.302,-0.6785,-0.3625,-0.226,-0.5065,-0.124,0.0395,-0.8475,-0.522,-0.3415
-1.242,-1.9105,-0.6685,1.576,-0.287,-1.2895,-0.6795,-0.362,-0.23,-0.5105,-0.132,0.0305,-0.8555,-0.502,-0.315
-1.238,-1.9155,-0.6775,1.5765,-0.2805,-1.2965,-0.6575,-0.3615,-0.233,-0.5185,-0.14,0.026,-0.8595,-0.517,-0.3325
-1.225,-1.9245,-0.6995,1.5745,-0.263,-1.312,-0.6545,-0.368,-0.2385,-0.5245,-0.1485,0.0215,-0.8635,-0.52,-0.322
-1.249,-1.937,-0.688,1.5925,-0.281,-1.3125,-0.644,-0.365,-0.236,-0.5305,-0.15,0.022,-0.872,-0.5125,-0.31
-1.264,-1.9385,-0.6745,1.601,-0.295,-1.3065,-0.635,-0.366,-0.239,-0.5295,-0.151,0.024,-0.8765,-0.5105,-0.324
-1.266,-1.9395,-0.6735,1.6025,-0.2965,-1.3065,-0.6265,-0.3655,-0.243,-0.547,-0.1605,0.015,-0.8835,-0.5035,-0.328
-1.2715,-1.936,-0.6645,1.6035,-0.3035,-1.3,-0.607,-0.364,-0.2475,-0.5505,-0.1675,0.0105,-0.893,-0.509,-0.353
-1.2695,-1.922,-0.6525,1.5955,-0.309,-1.287,-0.6015,-0.3735,-0.257,-0.5685,-0.179,0.002,-0.9065,-0.501,-0.351
-1.2635,-1.91,-0.6465,1.5865,-0.3085,-1.278,-0.6025,-0.387,-0.2785,-0.593,-0.198,-0.007,-0.9145,-0.4925,-0.348
-1.255,-1.905,-0.65,1.5795,-0.3025,-1.2775,-0.6085,-0.403,-0.309,-0.6105,-0.206,-0.0075,-0.9145,-0.485,-0.3265
-1.2475,-1.896,-0.6485,1.5715,-0.3,-1.272,-0.61,-0.4165,-0.326,-0.6515,-0.224,-0.0185,-0.927,-0.488,-0.327
-1.2425,-1.874,-0.6315,1.558,-0.306,-1.2525,-0.6105,-0.4305,-0.3555,-0.6535,-0.241,-0.021,-0.932,-0.478,-0.324
-1.2665,-1.862,-0.596,1.564,-0.3355,-1.229,-0.6075,-0.426,-0.368,-0.723,-0.2575,-0.0345,-0.955,-0.4685,-0.322
-1.272,-1.8555,-0.5835,1.5635,-0.3445,-1.2195,-0.6105,-0.429,-0.38,-0.661,-0.2615,-0.026,-0.9455,-0.468,-0.3465
-1.268,-1.847,-0.579,1.5575,-0.345,-1.213,-0.634,-0.45,-0.4085,-0.8075,-0.28,-0.0455,-0.9715,-0.4635,-0.3285
-1.2605,-1.8415,-0.581,1.551,-0.34,-1.211,-0.648,-0.471,-0.4375,-0.4995,-0.2795,-0.0295,-0.9335,-0.4655,-0.376
-1.2715,-1.842,-0.5705,1.5565,-0.351,-1.2065,-0.671,-0.498,-0.4735,0.0795,-0.2975,-0.0505,-0.9,-0.4475,-0.4025
-1.249,-1.8355,-0.5865,1.542,-0.3315,-1.211,-0.6895,-0.528,-0.5115,0.0585,-0.295,-0.0225,-0.8805,-0.453,-0.4015
-1.2405,-1.816,-0.576,1.528,-0.3325,-1.196,-0.7235,-0.5465,-0.527,0.02,-0.273,-0.0125,-0.872,-0.438,-0.3605
-1.2155,-1.812,-0.5965,1.5135,-0.3095,-1.204,-0.7295,-0.5655,-0.5345,0.0745,-0.2735,0.0075,-0.847,-0.448,-0.383
-1.207,-1.799,-0.592,1.503,-0.3075,-1.1955,-0.7535,-0.554,-0.532,-0.014,-0.224,0.0525,-0.823,-0.4195,-0.336
-1.227,-1.7685,-0.5415,1.4975,-0.343,-1.155,-0.753,-0.541,-0.512,-0.6665,-0.2515,-0.521,-1.23,-0.437,-0.396
-1.1885,-1.727,-0.5385,1.4575,-0.325,-1.1325,-0.7995,-0.5545,-0.5125,-0.8075,-0.089,-0.781,-1.3715,-0.6325,-0.948
-1.2285,-1.694,-0.4655,1.461,-0.382,-1.0795,-0.8015,-0.528,-0.4705,-0.6755,-0.5125,-0.6205,-1.3045,-0.662,-0.9955
-1.0765,-1.6635,-0.587,1.37,-0.245,-1.1255,-0.8505,-0.543,-0.476,-0.7195,-1.016,-0.6605,-1.331,-0.615,-0.8475
-1.5185,-1.623,-0.105,1.5705,-0.707,-0.864,-0.8045,-0.37,-0.291,-0.4845,-0.7255,-0.4255,-1.251,-0.6135,-0.8845
-2.028,-1.588,0.4395,1.808,-1.2345,-0.574,-0.064,-0.1605,-0.0635,-0.2615,-0.477,-0.1765,-1.18,-0.571,-0.826
-1.871,-1.557,0.3135,1.714,-1.0925,-0.6215,0.213,-0.22,-0.074,-0.206,-0.4305,-0.1575,-1.1085,-0.564,-0.819
-1.863,-1.5295,0.3325,1.696,-1.0985,-0.598,0.052,-0.216,-0.0275,-0.132,-0.2955,-0.0155,-0.993,-0.537,-0.766
-1.802,-1.5055,0.296,1.6535,-1.0495,-0.6045,0.038,-0.2495,-0.0135,-0.0145,-0.2155,-0.0315,-0.958,-0.5385,-0.756
-1.753,-1.481,0.272,1.6165,-1.013,-0.604,-0.067,-0.306,-0.008,-0.0085,-0.0895,0.3345,-0.7005,-0.5365,-0.675
-1.7005,-1.4565,0.244,1.5785,-0.973,-0.606,-0.1205,-0.3285,0.001,0.668,0.71,1.0435,-0.1205,-0.514,-0.6845
-1.6385,-1.4505,0.1875,1.5445,-0.9135,-0.6315,-0.204,-0.432,-0.0305,1.099,1.0145,1.058,-0.0215,-0.5425,-0.758
-1.602,-1.43,0.1715,1.5155,-0.887,-0.629,-0.2925,-0.487,-0.0925,1.0145,1.011,1.14,0.038,-0.4835,-0.463
-1.562,-1.4025,0.1585,1.482,-0.861,-0.622,-0.399,-0.771,-0.1705,1.116,1.1255,1.198,0.1065,-0.579,-0.2265
-1.5255,-1.39,0.1355,1.4575,-0.831,-0.627,-0.497,-0.533,-0.244,1.112,1.1885,1.258,0.1645,-0.106,-0.195
-1.477,-1.3625,0.114,1.4195,-0.796,-0.624,-0.612,-0.0695,-0.31,1.1795,1.265,1.333,0.2425,0.45,-0.115
-1.4315,-1.3265,0.1045,1.379,-0.7685,-0.6105,-0.671,-0.2555,-0.3475,1.2405,1.4005,1.3935,0.315,0.381,-0.0855
-1.3605,-1.292,0.068,1.326,-0.7145,-0.612,-0.8215,-0.3495,-0.4025,1.29,1.4365,1.5235,0.428,0.4305,-0.011
-1.323,-1.2535,0.0695,1.288,-0.697,-0.5915,-0.817,-0.4835,-0.49,1.307,0.815,0.98,0.0615,0.4405,0.029
-1.271,-1.1995,0.0705,1.235,-0.671,-0.564,-1.2895,-0.6495,-0.6145,1.2765,0.7355,0.7765,-0.054,0.486,0.1225
-1.259,-1.1605,0.0975,1.2095,-0.679,-0.5315,-1.969,-0.746,-0.6815,1.294,0.887,0.9435,0.07,0.531,0.003
-1.1795,-1.158,0.021,1.1685,-0.6005,-0.5685,-1.9345,-0.8235,-0.682,1.3525,0.9345,0.9575,0.1105,0.5165,-0.189
-1.201,-1.1735,0.027,1.187,-0.614,-0.573,-1.959,-0.79,-0.6065,1.4755,1.0945,1.075,0.202,0.513,-0.1375
-0.9705,-1.17,-0.2,1.07,-0.3855,-0.685,-2.049,-0.943,-0.725,1.3845,1.015,1.0125,0.2095,0.5005,-0.139
-0.233,-1.234,-1.001,0.733,0.3835,-1.117,-2.254,-1.175,-0.9655,1.1555,0.7975,0.766,0.213,0.4395,-0.119
-0.2315,-1.349,-1.1175,0.79,0.4425,-1.233,-2.235,-1.118,-0.913,1.2395,0.835,0.7805,0.238,0.356,-0.156
-0.968,-1.414,-0.4465,1.191,-0.261,-0.9305,-1.9065,-0.8615,-0.689,1.4885,1.0955,0.998,0.2215,0.282,-0.1495
-1.2065,-1.4505,-0.2445,1.328,-0.481,-0.8475,-1.8965,-0.8055,-0.6325,1.5785,1.1565,1.074,0.2075,0.2985,-0.1735
-1.2135,-1.4465,-0.233,1.33,-0.4905,-0.8395,-1.3105,-0.861,-0.7065,1.451,1.031,0.9565,0.1015,0.2645,-0.1835
-1.337,-1.444,-0.107,1.39,-0.615,-0.7755,-0.7645,-0.8265,-0.6845,1.419,0.893,0.9445,0.037,0.404,0.0615
-1.4235,-1.466,-0.0425,1.4445,-0.691,-0.7545,-0.747,-0.7515,-0.6595,1.2655,1.297,1.4845,0.3505,0.111,0.119
-1.514,-1.5175,-0.0035,1.5155,-0.7555,-0.7605,-0.569,-0.656,-0.6405,1.163,1.4675,1.4995,0.3345,-0.5605,0.029
-1.565,-1.573,-0.008,1.569,-0.779,-0.7905,-0.5085,-0.5775,-0.6295,1.041,1.1515,1.3545,0.1875,-0.5625,0.036
-1.6255,-1.6225,0.003,1.624,-0.8145,-0.81,-0.4025,-0.5245,-0.6375,0.2525,1.1705,1.3,0.0625,-0.5945,0.055
-1.665,-1.66,0.005,1.6625,-0.8355,-0.8275,-0.3305,-0.4875,-0.656,-0.095,0.679,1.165,-0.109,-0.6275,0.1085
-1.7215,-1.6765,0.044,1.6985,-0.8835,-0.816,-0.2575,-0.4365,-0.649,-0.0755,-0.093,1.1405,-0.2115,-0.61,0.1415
-1.7425,-1.7025,0.0395,1.722,-0.8915,-0.8315,-0.1685,-0.3795,-0.6395,-0.251,-0.201,0.399,-0.7035,-0.6505,0.038
-1.8045,-1.715,0.089,1.7595,-0.947,-0.8125,-0.0825,-0.312,-0.6035,-0.2455,-0.317,0.064,-0.946,-0.6345,-0.0455
-1.8255,-1.7305,0.0945,1.778,-0.9605,-0.818,0.003,-0.2615,-0.601,-0.3825,-0.4065,0.0865,-0.9695,-0.6475,-0.0535
-1.9215,-1.7525,0.1685,1.837,-1.0455,-0.792,0.0765,-0.1955,-0.569,-0.378,-0.5115,-0.0355,-1.0875,-0.634,-0.0895
-1.9105,-1.752,0.1585,1.831,-1.035,-0.7965,0.109,-0.1765,-0.5745,-0.477,-0.572,-0.0675,-1.1285,-0.6345,-0.098
-2.008,-1.729,0.2785,1.868,-1.1435,-0.725,0.1365,-0.111,-0.5745,-0.483,-0.6385,-0.1065,-1.1935,-0.5935,-0.109
-1.8755,-1.719,0.156,1.797,-1.016,-0.7815,0.0715,-0.153,-0.6045,0.0635,-0.678,-0.1815,-1.166,-0.581,-0.195
-1.1885,-1.736,-0.5475,1.462,-0.3205,-1.1415,-0.197,-0.3755,-0.9665,0.0075,-0.2375,-0.474,-1.134,-0.595,-0.2975
-1.115,-1.7505,-0.636,1.4325,-0.24,-1.193,-0.2445,-0.401,-0.5655,-0.1805,-0.165,-0.5395,-1.1685,-0.6175,-0.302
-1.1755,-1.7735,-0.598,1.4745,-0.289,-1.1855,-0.222,-0.3575,-0.0235,-0.195,-0.265,-0.5615,-1.2065,-0.634,-0.287
-1.1535,-1.7945,-0.6405,1.474,-0.257,-1.2175,-0.2265,-0.3685,-0.216,-0.3305,-0.2695,-0.6105,-1.241,-0.6435,-0.312
-1.1955,-1.8085,-0.613,1.5015,-0.2915,-1.2105,-0.197,-0.3135,-0.1745,-0.361,-0.3285,-0.626,-1.273,-0.6655,-0.277
-1.174,-1.8245,-0.6505,1.499,-0.262,-1.2375,-0.1835,-0.27,-0.2035,-0.403,-0.3165,-0.647,-1.285,-0.6775,-0.479
-1.2065,-1.826,-0.619,1.516,-0.294,-1.2225,-0.1465,-0.184,-0.1115,-0.3645,-0.3455,-0.671,-1.3095,-0.6805,-0.7245
-1.1935,-1.8195,-0.626,1.5065,-0.284,-1.223,-0.131,-0.126,-0.0755,-0.351,-0.341,-0.686,-1.3145,-0.6805,-0.7325
-1.2235,-1.8165,-0.593,1.52,-0.3155,-1.205,-0.089,-0.07,-0.706,-0.298,-0.337,-0.7125,-1.3365,-0.6715,-0.7905
-1.212,-1.8235,-0.6115,1.5175,-0.3005,-1.2175,-0.0645,0.052,-0.8725,-0.26,-0.317,-0.6975,-1.323,-0.6815,-0.8095
-1.2055,-1.8345,-0.629,1.5195,-0.2885,-1.2315,-0.0505,-0.513,-0.7375,-0.224,-0.302,-0.709,-1.3205,-0.6975,-0.8295
-1.2075,-1.838,-0.63,1.5225,-0.289,-1.234,-0.031,-0.8675,-0.7365,-0.16,-0.287,-0.706,-1.31,-0.7035,-0.867
-1.216,-1.841,-0.625,1.528,-0.296,-1.233,-0.016,-0.709,-0.6455,-0.13,-0.274,-0.7105,-1.3075,-0.72,-0.906
-1.2235,-1.8525,-0.629,1.5375,-0.2975,-1.241,0.021,-0.7375,-0.6255,-0.0595,-0.2645,-0.758,-1.3275,-0.7395,-0.9555
-1.222,-1.865,-0.643,1.5435,-0.2895,-1.254,0.017,-0.6655,-0.563,-0.054,-0.249,-0.144,-0.9485,-0.749,-0.8935
-1.2325,-1.8675,-0.635,1.55,-0.299,-1.2515,0.0735,-0.644,-0.5335,0.0215,-0.238,0.14,-0.7695,-0.7485,-0.8845
-1.229,-1.866,-0.637,1.547,-0.2965,-1.251,0.031,-0.6005,-0.492,-0.004,-0.2255,0.0395,-0.831,-0.751,-0.912
-1.2255,-1.866,-0.641,1.5455,-0.2925,-1.2535,-0.238,-0.5855,-0.4705,0.0935,-0.2235,0.0875,-0.7885,-0.755,-0.934
-1.239,-1.868,-0.629,1.5535,-0.3055,-1.2485,-0.6215,-0.572,-0.44,-0.029,-0.214,0.0425,-0.8245,-0.755,-0.926
-1.251,-1.8715,-0.621,1.561,-0.3155,-1.246,-0.7985,-0.541,-0.3985,-0.684,-0.197,0.09,-0.8505,-0.7535,-0.848
-1.246,-1.878,-0.6325,1.562,-0.307,-1.2555,-0.7345,-0.525,-0.3885,-0.7475,-0.19,0.0535,-0.873,-0.7575,-0.847
-1.233,-1.876,-0.643,1.554,-0.295,-1.2595,-0.7505,-0.496,-0.359,-0.678,-0.1805,0.1065,-0.832,-0.7645,-0.8595
-1.225,-1.8755,-0.6505,1.55,-0.2875,-1.263,-0.732,-0.488,-0.3405,-0.6985,-0.172,0.0425,-0.874,-0.7705,-0.877
-1.2205,-1.8875,-0.667,1.554,-0.277,-1.2775,-0.725,-0.48,-0.3325,-0.651,-0.1705,0.123,-0.82,-0.787,-0.871
-1.219,-1.8885,-0.6695,1.5535,-0.275,-1.279,-0.7195,-0.4765,-0.3235,-0.6675,-0.162,0.0135,-0.887,-0.786,-0.8825
-1.224,-1.8855,-0.6615,1.5545,-0.2815,-1.2735,-0.7045,-0.465,-0.307,-0.6275,-0.1525,0.183,-0.779,-0.7735,-0.857
-1.2235,-1.887,-0.6635,1.555,-0.28,-1.275,-0.7015,-0.4565,-0.2975,-0.6315,-0.144,-0.174,-0.996,-0.774,-0.8995
-1.2245,-1.8895,-0.6645,1.5565,-0.2805,-1.277,-0.691,-0.447,-0.286,-0.6055,-0.1375,-0.6845,-1.3045,-0.7795,-0.972
-1.2245,-1.892,-0.6675,1.5575,-0.2785,-1.28,-0.6965,-0.439,-0.2785,-0.607,-0.1385,-0.0195,-0.897,-0.7835,-0.889
-1.2195,-1.8895,-0.67,1.5545,-0.275,-1.28,-0.6905,-0.4245,-0.281,-0.5995,-0.1375,0.144,-0.7955,-0.784,-0.8815
-1.226,-1.8905,-0.6645,1.558,-0.281,-1.2775,-0.699,-0.4155,-0.26,-0.5855,-0.1295,0.0215,-0.866,-0.7885,-0.908
-1.2215,-1.8845,-0.663,1.5525,-0.2795,-1.2735,-0.7035,-0.404,-0.241,-0.572,-0.1255,-0.617,-1.2525,-0.7865,-0.994
-1.217,-1.8775,-0.66,1.547,-0.2785,-1.269,-0.7025,-0.398,-0.2385,-0.565,-0.1245,-0.761,-1.3405,-0.7815,-1.0055
-1.218,-1.879,-0.661,1.548,-0.279,-1.27,-0.696,-0.3925,-0.232,-0.559,-0.1205,-0.7295,-1.3185,-0.7815,-1.0005
-1.223,-1.8845,-0.6615,1.5535,-0.281,-1.273,-0.694,-0.3815,-0.2235,-0.5495,-0.1195,-0.604,-1.244,-0.778,-0.991
-1.228,-1.896,-0.668,1.5615,-0.28,-1.282,-0.696,-0.3825,-0.219,-0.5445,-0.12,0.111,-0.8105,-0.7805,-0.8985
-1.2195,-1.896,-0.6765,1.5575,-0.272,-1.286,-0.695,-0.384,-0.218,-0.543,-0.125,0.0685,-0.8335,-0.7815,-0.905
-1.2235,-1.8895,-0.666,1.556,-0.279,-1.278,-0.6925,-0.379,-0.2065,-0.534,-0.1205,0.083,-0.823,-0.783,-0.9075
-1.232,-1.896,-0.6645,1.564,-0.284,-1.28,-0.681,-0.3685,-0.195,-0.5215,-0.1125,0.092,-0.82,-0.791,-0.9215
-1.23,-1.899,-0.669,1.564,-0.2805,-1.284,-0.6795,-0.364,-0.1935,-0.5245,-0.117,0.0705,-0.8345,-0.7985,-0.9355
-1.221,-1.899,-0.6785,1.5595,-0.2715,-1.289,-0.689,-0.36,-0.191,-0.5215,-0.1135,0.097,-0.814,-0.7985,-0.9315
-1.2155,-1.9015,-0.686,1.5585,-0.265,-1.294,-0.6895,-0.356,-0.192,-0.521,-0.114,0.0695,-0.8285,-0.799,-0.9345
-1.2155,-1.897,-0.682,1.556,-0.267,-1.2895,-0.689,-0.351,-0.1895,-0.521,-0.1145,0.087,-0.816,-0.7985,-0.9235
-1.212,-1.901,-0.689,1.5565,-0.262,-1.295,-0.6895,-0.3465,-0.1925,-0.5215,-0.117,0.0675,-0.8275,-0.803,-0.9335
-1.2125,-1.9035,-0.691,1.558,-0.261,-1.297,-0.686,-0.3485,-0.1935,-0.524,-0.1255,0.0755,-0.8255,-0.8005,-0.924
-1.217,-1.903,-0.686,1.5595,-0.2655,-1.2945,-0.6835,-0.3465,-0.1865,-0.5205,-0.1245,0.0665,-0.8315,-0.8,-0.9425
-1.221,-1.8965,-0.6755,1.5585,-0.273,-1.286,-0.677,-0.3345,-0.1785,-0.5105,-0.118,0.0755,-0.826,-0.788,-0.931
-1.218,-1.8855,-0.6675,1.5515,-0.2755,-1.2765,-0.6695,-0.324,-0.171,-0.5065,-0.118,0.0735,-0.8295,-0.7935,-0.944
-1.2175,-1.894,-0.677,1.5555,-0.2705,-1.2855,-0.663,-0.3225,-0.1735,-0.5095,-0.1225,0.0705,-0.834,-0.792,-0.9345
-1.2115,-1.8985,-0.687,1.5545,-0.2625,-1.293,-0.6605,-0.3195,-0.172,-0.5085,-0.1235,0.0675,-0.8345,-0.7965,-0.9405
-1.2085,-1.8985,-0.69,1.5535,-0.2595,-1.2945,-0.66,-0.3285,-0.174,-0.5135,-0.1315,0.061,-0.8365,-0.802,-0.9595
-1.216,-1.8995,-0.6835,1.5575,-0.2665,-1.2915,-0.654,-0.337,-0.1745,-0.51,-0.129,0.0625,-0.839,-0.7815,-0.9285
-1.2115,-1.897,-0.6855,1.554,-0.2635,-1.2915,-0.6585,-0.341,-0.171,-0.5055,-0.125,0.0655,-0.837,-0.8105,-1.0045
-1.2215,-1.91,-0.6885,1.5655,-0.2665,-1.2995,-0.6535,-0.3475,-0.175,-0.5075,-0.1285,0.061,-0.839,-0.5965,-0.529
-1.2295,-1.9125,-0.683,1.571,-0.2735,-1.298,-0.6445,-0.35,-0.1745,-0.505,-0.1255,0.06,-0.8405,-0.4875,-0.291
-1.2185,-1.8995,-0.681,1.559,-0.269,-1.2905,-0.651,-0.354,-0.172,-0.5065,-0.1315,0.0595,-0.838,-0.4895,-0.308
-1.215,-1.889,-0.674,1.552,-0.271,-1.2815,-0.654,-0.3585,-0.176,-0.506,-0.1305,0.0575,-0.836,-0.54,-0.43
-1.2185,-1.892,-0.6735,1.555,-0.273,-1.2825,-0.654,-0.358,-0.1735,-0.498,-0.122,0.0655,-0.8345,-0.787,-0.965
-1.221,-1.8985,-0.678,1.5595,-0.272,-1.288,-0.6555,-0.3615,-0.1735,-0.4965,-0.1245,0.061,-0.838,-0.793,-0.96
-1.213,-1.895,-0.682,1.5535,-0.266,-1.2885,-0.6575,-0.3645,-0.181,-0.5,-0.124,0.0625,-0.835,-0.7905,-0.952
-1.212,-1.8945,-0.6825,1.553,-0.265,-1.2885,-0.658,-0.367,-0.1815,-0.5005,-0.125,0.0625,-0.834,-0.798,-0.973
-1.222,-1.8995,-0.6775,1.5605,-0.272,-1.2885,-0.66,-0.3575,-0.171,-0.494,-0.1225,0.0685,-0.83,-0.7845,-0.937
-1.2265,-1.8995,-0.673,1.5625,-0.277,-1.286,-0.663,-0.3305,-0.156,-0.4815,-0.112,0.0735,-0.825,-0.7995,-0.961
-1.238,-1.8965,-0.6585,1.567,-0.29,-1.2775,-0.662,-0.316,-0.1475,-0.474,-0.1055,0.0825,-0.8155,-0.791,-0.944
-1.238,-1.8945,-0.6565,1.566,-0.291,-1.2755,-0.664,-0.311,-0.1435,-0.476,-0.1075,0.074,-0.819,-0.7975,-0.9595
-1.229,-1.892,-0.6635,1.5605,-0.283,-1.2775,-0.669,-0.31,-0.148,-0.486,-0.1145,0.074,-0.8185,-0.7915,-0.9445
-1.2275,-1.8935,-0.6665,1.5605,-0.281,-1.28,-0.665,-0.3015,-0.1475,-0.488,-0.112,0.076,-0.82,-0.8,-0.952
-1.2275,-1.8915,-0.664,1.559,-0.282,-1.2775,-0.65,-0.2905,-0.139,-0.482,-0.1065,0.0765,-0.8255,-0.7945,-0.945
-1.228,-1.8865,-0.6585,1.557,-0.285,-1.2725,-0.644,-0.2905,-0.138,-0.481,-0.105,0.0845,-0.8235,-0.779,-0.9465
-1.2115,-1.8855,-0.674,1.5485,-0.269,-1.28,-0.6535,-0.3055,-0.149,-0.4875,-0.1085,0.0595,-0.8365,-0.7795,-0.9455
-1.2105,-1.882,-0.672,1.546,-0.2695,-1.277,-0.656,-0.3145,-0.151,-0.4865,-0.107,0.092,-0.817,-0.778,-0.948
-1.2205,-1.881,-0.6605,1.5505,-0.28,-1.271,-0.659,-0.3095,-0.1505,-0.4805,-0.104,0.0425,-0.8465,-0.781,-0.9695
-1.218,-1.886,-0.668,1.552,-0.275,-1.277,-0.663,-0.318,-0.161,-0.483,-0.1065,0.1085,-0.805,-0.795,-0.9605
-1.2115,-1.8845,-0.673,1.5475,-0.2695,-1.2785,-0.6605,-0.3295,-0.1625,-0.4825,-0.1095,0.0095,-0.8635,-0.7885,-0.9795
-1.205,-1.881,-0.676,1.543,-0.265,-1.2785,-0.6625,-0.3275,-0.162,-0.481,-0.115,0.154,-0.7725,-0.783,-0.946
-1.206,-1.8745,-0.668,1.54,-0.2695,-1.271,-0.66,-0.328,-0.1555,-0.4725,-0.107,-0.178,-0.9735,-0.779,-0.993
-1.2135,-1.8675,-0.654,1.54,-0.28,-1.261,-0.656,-0.3435,-0.15,-0.4615,-0.0955,-0.7055,-1.2955,-0.7665,-1.0625
-1.219,-1.879,-0.6595,1.549,-0.28,-1.2695,-0.6645,-0.3545,-0.1555,-0.463,-0.1,-0.015,-0.8775,-0.779,-0.9685
-1.2165,-1.883,-0.6665,1.5495,-0.2755,-1.2745,-0.6715,-0.355,-0.155,-0.4645,-0.1015,0.1255,-0.7915,-0.799,-0.963
-1.2215,-1.8825,-0.661,1.552,-0.2805,-1.2715,-0.6615,-0.352,-0.1545,-0.467,-0.1065,0.0415,-0.8455,-0.7795,-0.922
-1.223,-1.879,-0.656,1.5505,-0.284,-1.2675,-0.656,-0.3435,-0.1445,-0.4605,-0.106,0.104,-0.81,-0.7865,-0.9485
-1.2235,-1.8785,-0.655,1.551,-0.2845,-1.267,-0.653,-0.3255,-0.1315,-0.452,-0.098,0.0635,-0.834,-0.7985,-0.9795
-1.233,-1.892,-0.659,1.562,-0.2875,-1.2755,-0.653,-0.304,-0.127,-0.452,-0.1005,0.0915,-0.8185,-0.7955,-0.9385
-1.239,-1.889,-0.65,1.5635,-0.295,-1.2695,-0.6645,-0.284,-0.1165,-0.449,-0.1015,0.0785,-0.826,-0.8035,-0.9565
-1.2345,-1.878,-0.6435,1.556,-0.296,-1.261,-0.6705,-0.2715,-0.1155,-0.4535,-0.107,0.0705,-0.8295,-0.7815,-0.933
-1.2335,-1.874,-0.64,1.5535,-0.297,-1.257,-0.6705,-0.261,-0.115,-0.4565,-0.111,0.089,-0.8185,-0.787,-0.9615
-1.231,-1.8745,-0.643,1.5525,-0.294,-1.259,-0.6705,-0.2635,-0.118,-0.4575,-0.107,0.06,-0.836,-0.7765,-0.9505
-1.2225,-1.879,-0.6565,1.5505,-0.2835,-1.2675,-0.6755,-0.273,-0.1245,-0.462,-0.107,0.1005,-0.81,-0.787,-0.9585
-1.2115,-1.8825,-0.671,1.5465,-0.2705,-1.277,-0.6725,-0.2765,-0.1265,-0.467,-0.1095,0.0635,-0.833,-0.78,-0.9505
-1.2015,-1.8865,-0.685,1.544,-0.2585,-1.2855,-0.673,-0.2855,-0.1335,-0.474,-0.1115,0.084,-0.82,-0.771,-0.936
-1.2225,-1.8875,-0.665,1.555,-0.279,-1.2765,-0.6695,-0.2815,-0.13,-0.472,-0.1045,0.1095,-0.808,-0.7845,-0.955
-1.232,-1.8805,-0.6485,1.556,-0.292,-1.2645,-0.6705,-0.2795,-0.1255,-0.4695,-0.098,-0.4995,-1.1815,-0.7665,-1.003
-1.224,-1.879,-0.655,1.5515,-0.285,-1.267,-0.6825,-0.284,-0.1325,-0.48,-0.106,-0.1235,-0.95,-0.819,-1.0575
-1.2255,-1.873,-0.6475,1.549,-0.289,-1.2605,-0.68,-0.288,-0.139,-0.4855,-0.113,0.139,-0.7885,-0.632,-0.6285
-1.2235,-1.868,-0.6445,1.5455,-0.29,-1.2565,-0.676,-0.298,-0.1435,-0.488,-0.111,0.0755,-0.8295,-0.652,-0.6875
-1.223,-1.879,-0.6555,1.551,-0.284,-1.2675,-0.6745,-0.306,-0.1495,-0.4915,-0.108,-0.0385,-0.9035,-0.827,-1.062
-1.2245,-1.8835,-0.6595,1.554,-0.2825,-1.2715,-0.6725,-0.3085,-0.1515,-0.491,-0.105,-0.7295,-1.326,-0.77,-1.0345
-1.216,-1.877,-0.661,1.5465,-0.2775,-1.2695,-0.673,-0.315,-0.154,-0.4915,-0.1035,-0.758,-1.3385,-0.7935,-1.096
-1.219,-1.876,-0.6565,1.547,-0.2815,-1.266,-0.6695,-0.319,-0.1525,-0.4865,-0.103,-0.5505,-1.211,-0.7715,-1.033
-1.217,-1.8755,-0.6585,1.546,-0.2795,-1.267,-0.669,-0.3255,-0.1575,-0.4895,-0.1065,-0.6125,-1.25,-0.7725,-1.0415
-1.2085,-1.8715,-0.6625,1.5395,-0.2735,-1.2665,-0.664,-0.3265,-0.157,-0.4855,-0.1045,-0.759,-1.336,-0.779,-1.0595
-1.206,-1.8705,-0.6645,1.538,-0.271,-1.2675,-0.656,-0.318,-0.1545,-0.48,-0.099,-0.7135,-1.3065,-0.773,-1.05
-1.1975,-1.8685,-0.671,1.533,-0.2635,-1.2695,-0.6595,-0.3155,-0.1575,-0.482,-0.099,-0.7265,-1.3115,-0.778,-1.065
-1.205,-1.869,-0.664,1.537,-0.271,-1.2665,-0.655,-0.298,-0.153,-0.481,-0.0985,-0.726,-1.309,-0.775,-1.0565
-1.198,-1.862,-0.664,1.53,-0.2675,-1.263,-0.651,-0.292,-0.1565,-0.486,-0.105,-0.721,-1.302,-0.774,-1.0625
-1.191,-1.856,-0.665,1.5235,-0.2635,-1.2605,-0.655,-0.2975,-0.1475,-0.4785,-0.1025,-0.733,-1.3075,-0.7705,-1.061
-1.1975,-1.8615,-0.6635,1.529,-0.267,-1.2625,-0.656,-0.295,-0.142,-0.4775,-0.1005,-0.72,-1.3015,-0.7755,-1.073
-1.203,-1.8545,-0.651,1.5285,-0.276,-1.253,-0.6515,-0.305,-0.147,-0.4835,-0.1015,-0.73,-1.3095,-0.76,-1.069
-1.2025,-1.853,-0.6505,1.5275,-0.276,-1.252,-0.6495,-0.3155,-0.152,-0.4845,-0.1,-0.72,-1.3045,-0.7625,-1.069
-1.202,-1.8555,-0.654,1.5285,-0.274,-1.255,-0.654,-0.3215,-0.1495,-0.4835,-0.1,-0.73,-1.3105,-0.7735,-1.076
-1.2145,-1.859,-0.644,1.5365,-0.2855,-1.2515,-0.645,-0.3185,-0.141,-0.477,-0.0965,-0.722,-1.3105,-0.775,-1.077
-1.2245,-1.8635,-0.6385,1.5435,-0.293,-1.251,-0.634,-0.3215,-0.138,-0.472,-0.0925,-0.7205,-1.315,-0.7745,-1.066
-1.2375,-1.8645,-0.627,1.551,-0.3055,-1.246,-0.634,-0.33,-0.1435,-0.47,-0.0865,-0.716,-1.3145,-0.767,-1.0675
-1.2405,-1.8665,-0.626,1.5535,-0.3075,-1.2465,-0.6425,-0.3295,-0.138,-0.4635,-0.0825,-0.7175,-1.3115,-0.766,-1.0725
-1.2365,-1.8575,-0.621,1.547,-0.308,-1.2395,-0.6535,-0.3355,-0.1345,-0.461,-0.08,-0.7205,-1.3085,-0.7645,-1.0755
-1.2345,-1.8585,-0.624,1.5465,-0.3055,-1.2415,-0.6655,-0.344,-0.1515,-0.4715,-0.0865,-0.7235,-1.308,-0.76,-1.072
-1.2285,-1.863,-0.6345,1.5455,-0.2975,-1.2485,-0.678,-0.351,-0.1485,-0.4695,-0.0895,-0.7295,-1.311,-0.7665,-1.0715
-1.235,-1.863,-0.6285,1.549,-0.3035,-1.246,-0.6785,-0.3415,-0.144,-0.467,-0.087,-0.7215,-1.3115,-0.767,-1.073
-1.238,-1.8625,-0.6245,1.55,-0.307,-1.2435,-0.6785,-0.33,-0.1545,-0.4745,-0.0905,-0.728,-1.3185,-0.7695,-1.0735
-1.238,-1.8625,-0.6245,1.55,-0.307,-1.2435,-0.686,-0.309,-0.155,-0.4735,-0.089,-0.7175,-1.3105,-0.7745,-1.0685
-1.24,-1.8675,-0.6275,1.5535,-0.3065,-1.2475,-0.692,-0.279,-0.1395,-0.4695,-0.089,-0.724,-1.3135,-0.777,-1.062
-1.2265,-1.8645,-0.638,1.545,-0.2945,-1.251,-0.698,-0.275,-0.1385,-0.4715,-0.0905,-0.719,-1.307,-0.7795,-1.056
-1.216,-1.858,-0.642,1.537,-0.2875,-1.25,-0.702,-0.2825,-0.147,-0.478,-0.095,-0.72,-1.304,-0.771,-1.0555
-1.2105,-1.8585,-0.648,1.5345,-0.2815,-1.2535,-0.7,-0.292,-0.1525,-0.486,-0.1045,-0.736,-1.312,-0.774,-1.0535
-1.212,-1.8635,-0.6515,1.5375,-0.2805,-1.2575,-0.6965,-0.294,-0.1525,-0.4865,-0.1035,-0.7205,-1.307,-0.779,-1.0485
-1.2235,-1.861,-0.6375,1.542,-0.2935,-1.249,-0.6955,-0.293,-0.1535,-0.487,-0.1005,-0.7435,-1.328,-0.7685,-1.054
-1.2315,-1.8585,-0.6265,1.5445,-0.3025,-1.2425,-0.695,-0.2925,-0.1555,-0.4885,-0.1035,-0.696,-1.3,-0.7715,-1.0485
-1.235,-1.854,-0.619,1.544,-0.3085,-1.2365,-0.69,-0.2935,-0.1555,-0.4905,-0.106,-0.7925,-1.361,-0.764,-1.0605
-1.24,-1.854,-0.6145,1.5465,-0.313,-1.234,-0.688,-0.299,-0.164,-0.5005,-0.111,-0.294,-1.06,-0.7515,-0.991
-1.2385,-1.8615,-0.623,1.55,-0.3085,-1.242,-0.689,-0.3065,-0.171,-0.505,-0.1135,0.1765,-0.7745,-0.7575,-0.927
-1.2275,-1.8555,-0.6285,1.5415,-0.2995,-1.242,-0.686,-0.3105,-0.173,-0.5075,-0.114,-0.5345,-1.2075,-0.759,-1.022
-1.2215,-1.851,-0.629,1.536,-0.2965,-1.24,-0.6905,-0.321,-0.177,-0.512,-0.1145,-0.796,-1.365,-0.757,-1.0535
-1.2195,-1.85,-0.631,1.5345,-0.2945,-1.2405,-0.695,-0.33,-0.183,-0.515,-0.117,-0.6755,-1.2925,-0.7505,-1.035
-1.223,-1.8435,-0.6205,1.533,-0.3015,-1.232,-0.703,-0.333,-0.1875,-0.5205,-0.1225,-0.8045,-1.3715,-0.7435,-1.049
-1.223,-1.8275,-0.6045,1.525,-0.3095,-1.216,-0.7045,-0.3445,-0.1945,-0.5255,-0.124,-0.6535,-1.279,-0.7365,-1.022
-1.2175,-1.826,-0.6085,1.5215,-0.305,-1.217,-0.6955,-0.339,-0.193,-0.524,-0.1255,-0.8565,-1.401,-0.737,-1.047
