i,ii,iii,avr,avl,avf,v1,v2,v3,v4,v5,v6,vx,vy,vz
-0.1775,0.24,0.4175,-0.0315,-0.297,0.3285,0.2575,0.3125,0.3005,0.0075,0.088,-0.12,0.0705,0.213,-0.162
-0.1715,0.24,0.4115,-0.034,-0.291,0.3255,0.2585,0.314,0.302,0.008,0.086,-0.1215,0.0685,0.2135,-0.1605
-0.174,0.2415,0.4155,-0.034,-0.294,0.3285,0.258,0.316,0.303,0.0075,0.085,-0.125,0.0615,0.214,-0.163
-0.1735,0.2395,0.413,-0.033,-0.293,0.3265,0.2565,0.3145,0.3015,0.0065,0.0855,-0.123,0.0625,0.215,-0.1615
-0.17,0.2445,0.4145,-0.0375,-0.292,0.3295,0.262,0.318,0.3035,0.0095,0.0875,-0.1225,0.0645,0.2165,-0.162
-0.167,0.2475,0.415,-0.04,-0.2905,0.331,0.2655,0.319,0.307,0.012,0.089,-0.1215,0.065,0.2165,-0.1645
-0.1625,0.245,0.4075,-0.041,-0.2845,0.326,0.2555,0.316,0.3065,0.0135,0.0885,-0.122,0.065,0.2135,-0.164
-0.1625,0.244,0.4065,-0.041,-0.284,0.325,0.257,0.315,0.3065,0.0125,0.088,-0.123,0.065,0.2135,-0.1625
-0.164,0.2465,0.4105,-0.041,-0.287,0.3285,0.258,0.3195,0.308,0.013,0.0875,-0.1235,0.066,0.219,-0.1635
-0.1655,0.2465,0.412,-0.0405,-0.2885,0.3295,0.257,0.3195,0.3075,0.0125,0.087,-0.1245,0.0645,0.2265,-0.165
-0.171,0.242,0.413,-0.0355,-0.2915,0.3275,0.258,0.3155,0.306,0.011,0.087,-0.124,0.0625,0.23,-0.1635
-0.171,0.242,0.413,-0.0355,-0.2915,0.3275,0.254,0.315,0.3065,0.012,0.0875,-0.122,0.0645,0.2235,-0.164
-0.165,0.247,0.4125,-0.041,-0.2885,0.3295,0.2555,0.3185,0.3085,0.0125,0.091,-0.1205,0.068,0.2275,-0.166
-0.1605,0.2475,0.408,-0.0435,-0.284,0.328,0.2495,0.316,0.307,0.012,0.092,-0.121,0.071,0.2305,-0.164
-0.1635,0.2505,0.4135,-0.0435,-0.288,0.332,0.254,0.3165,0.308,0.0125,0.092,-0.1205,0.071,0.224,-0.164
-0.168,0.25,0.418,-0.041,-0.2925,0.334,0.261,0.3205,0.3085,0.0125,0.0895,-0.1235,0.0665,0.2235,-0.1655
-0.169,0.2465,0.4155,-0.0385,-0.2915,0.331,0.2575,0.3175,0.3065,0.0105,0.0865,-0.125,0.0665,0.224,-0.1635
-0.1705,0.2465,0.417,-0.038,-0.293,0.3315,0.26,0.3195,0.309,0.0115,0.089,-0.124,0.069,0.2225,-0.1635
-0.1725,0.2435,0.416,-0.0355,-0.2935,0.33,0.259,0.322,0.3145,0.015,0.0935,-0.122,0.0685,0.2175,-0.165
-0.1735,0.245,0.418,-0.0355,-0.295,0.3315,0.259,0.3215,0.3135,0.0185,0.0955,-0.12,0.067,0.2155,-0.168
-0.1735,0.2435,0.417,-0.035,-0.2945,0.33,0.259,0.3195,0.3105,0.018,0.095,-0.121,0.068,0.2195,-0.1665
-0.1715,0.2425,0.414,-0.0355,-0.292,0.328,0.2555,0.319,0.3105,0.0155,0.0945,-0.121,0.071,0.2215,-0.1645
-0.17,0.2415,0.4115,-0.0355,-0.2905,0.3265,0.2575,0.3205,0.308,0.015,0.092,-0.121,0.0685,0.221,-0.164
-0.1755,0.24,0.4155,-0.032,-0.295,0.328,0.2585,0.322,0.308,0.016,0.0915,-0.123,0.065,0.217,-0.1635
-0.1785,0.24,0.4185,-0.031,-0.298,0.329,0.2575,0.3225,0.311,0.018,0.0885,-0.1235,0.0655,0.209,-0.1635
-0.178,0.2425,0.42,-0.0325,-0.2985,0.331,0.2585,0.322,0.312,0.0175,0.0875,-0.1245,0.0665,0.21,-0.1625
-0.1795,0.244,0.4235,-0.0325,-0.301,0.334,0.257,0.32,0.3075,0.014,0.0855,-0.127,0.0625,0.2125,-0.163
-0.1795,0.244,0.423,-0.0325,-0.3005,0.3335,0.259,0.319,0.3095,0.016,0.086,-0.1255,0.061,0.211,-0.1645
-0.173,0.249,0.422,-0.038,-0.297,0.3355,0.262,0.322,0.3165,0.0185,0.0885,-0.1245,0.064,0.2145,-0.166
-0.171,0.247,0.418,-0.038,-0.294,0.3325,0.2585,0.323,0.3105,0.0155,0.084,-0.127,0.066,0.214,-0.163
-0.17,0.25,0.42,-0.04,-0.2945,0.335,0.2575,0.3225,0.3075,0.0135,0.0855,-0.128,0.0625,0.223,-0.1645
-0.1645,0.254,0.419,-0.0445,-0.2915,0.3365,0.2545,0.3195,0.308,0.014,0.086,-0.1265,0.0615,0.233,-0.167
-0.169,0.25,0.4195,-0.0405,-0.2935,0.3345,0.255,0.3215,0.309,0.0145,0.085,-0.1265,0.065,0.2335,-0.164
-0.1675,0.2485,0.416,-0.0405,-0.2915,0.3325,0.2575,0.3255,0.3095,0.013,0.0835,-0.1295,0.065,0.234,-0.1625
-0.171,0.2425,0.413,-0.036,-0.2915,0.328,0.257,0.3235,0.3095,0.0155,0.084,-0.1275,0.065,0.229,-0.1615
-0.181,0.2395,0.4205,-0.0295,-0.3005,0.33,0.2615,0.324,0.3125,0.0155,0.085,-0.126,0.061,0.2215,-0.163
-0.1775,0.2425,0.42,-0.0325,-0.298,0.3315,0.2585,0.324,0.312,0.016,0.0855,-0.126,0.0595,0.216,-0.164
-0.1745,0.244,0.418,-0.0345,-0.2955,0.331,0.2595,0.3235,0.3125,0.016,0.0855,-0.126,0.063,0.2155,-0.1615
-0.1665,0.244,0.4105,-0.0385,-0.288,0.3275,0.265,0.324,0.311,0.0145,0.085,-0.127,0.065,0.217,-0.1615
-0.164,0.2445,0.408,-0.04,-0.2855,0.326,0.266,0.3245,0.3115,0.0185,0.089,-0.1245,0.0655,0.214,-0.1645
-0.1705,0.239,0.4095,-0.034,-0.2895,0.324,0.26,0.3245,0.3095,0.0165,0.0875,-0.1275,0.0635,0.208,-0.163
-0.1695,0.236,0.4055,-0.0335,-0.287,0.321,0.258,0.3235,0.307,0.0135,0.084,-0.1305,0.063,0.2105,-0.1605
-0.172,0.2375,0.4095,-0.033,-0.29,0.3235,0.26,0.3235,0.309,0.014,0.086,-0.1265,0.0635,0.2115,-0.1625
-0.1755,0.2365,0.412,-0.0305,-0.293,0.324,0.257,0.3185,0.3055,0.014,0.0855,-0.125,0.064,0.2085,-0.1635
-0.171,0.239,0.41,-0.0345,-0.29,0.3245,0.2585,0.3195,0.3065,0.012,0.085,-0.128,0.0625,0.2115,-0.162
-0.166,0.241,0.407,-0.0375,-0.286,0.324,0.2565,0.322,0.307,0.011,0.085,-0.128,0.0635,0.2175,-0.1625
-0.1705,0.2385,0.409,-0.034,-0.2895,0.324,0.257,0.32,0.304,0.0115,0.085,-0.1265,0.0655,0.2205,-0.1625
-0.1775,0.2365,0.414,-0.0295,-0.295,0.325,0.258,0.3195,0.3025,0.0095,0.084,-0.127,0.061,0.213,-0.1605
-0.175,0.239,0.414,-0.032,-0.294,0.3265,0.2545,0.3145,0.301,0.0075,0.0845,-0.1265,0.062,0.212,-0.158
-0.1725,0.242,0.414,-0.035,-0.2925,0.328,0.254,0.318,0.3015,0.006,0.085,-0.126,0.0655,0.222,-0.1565
-0.1775,0.24,0.4175,-0.0315,-0.297,0.329,0.2565,0.3175,0.3005,0.0045,0.0825,-0.1275,0.063,0.2245,-0.1575
-0.1745,0.243,0.417,-0.034,-0.295,0.33,0.2585,0.318,0.3015,0.005,0.08,-0.1265,0.064,0.2225,-0.1575
-0.1675,0.2465,0.4135,-0.0395,-0.29,0.33,0.256,0.3205,0.303,0.006,0.079,-0.1255,0.0655,0.2245,-0.1555
-0.1685,0.245,0.4135,-0.038,-0.2905,0.329,0.256,0.3175,0.301,0.004,0.078,-0.1265,0.0625,0.2225,-0.155
-0.171,0.2445,0.4155,-0.0365,-0.293,0.33,0.26,0.3195,0.3005,0.0035,0.0775,-0.1275,0.061,0.222,-0.1555
-0.1705,0.246,0.4165,-0.0375,-0.293,0.331,0.2575,0.3175,0.298,0.0025,0.0765,-0.1275,0.06,0.2255,-0.154
-0.17,0.247,0.4175,-0.0385,-0.293,0.332,0.2575,0.3165,0.2975,-0.001,0.0765,-0.1285,0.059,0.229,-0.154
-0.1695,0.2485,0.4185,-0.0395,-0.2935,0.3335,0.255,0.3155,0.2975,0.0,0.0785,-0.127,0.0595,0.226,-0.1545
-0.168,0.247,0.415,-0.0395,-0.291,0.331,0.2555,0.313,0.2955,0.0,0.0805,-0.1255,0.064,0.2205,-0.1525
-0.1695,0.244,0.4135,-0.0375,-0.2905,0.3285,0.2605,0.3155,0.295,-0.0005,0.081,-0.125,0.066,0.2195,-0.152
-0.1755,0.2415,0.4165,-0.033,-0.2955,0.329,0.2545,0.312,0.292,-0.002,0.08,-0.126,0.064,0.2195,-0.1525
-0.18,0.2385,0.4185,-0.029,-0.299,0.3285,0.255,0.312,0.292,-0.005,0.08,-0.128,0.0615,0.2235,-0.1515
-0.176,0.239,0.4145,-0.0315,-0.2945,0.327,0.2585,0.3155,0.295,-0.004,0.0775,-0.127,0.061,0.221,-0.15
-0.175,0.237,0.412,-0.0315,-0.293,0.3245,0.2555,0.3135,0.2925,-0.0055,0.0745,-0.127,0.061,0.217,-0.153
-0.173,0.238,0.411,-0.0325,-0.291,0.3245,0.2515,0.309,0.2895,-0.009,0.0735,-0.1285,0.061,0.218,-0.1515
-0.1675,0.243,0.411,-0.0375,-0.2885,0.327,0.2535,0.315,0.2905,-0.008,0.0725,-0.129,0.0605,0.22,-0.149
-0.1715,0.24,0.4115,-0.0345,-0.2905,0.3255,0.257,0.3155,0.2905,-0.007,0.0715,-0.13,0.0595,0.2185,-0.149
-0.179,0.2355,0.414,-0.0285,-0.296,0.325,0.2565,0.312,0.289,-0.0095,0.071,-0.131,0.056,0.214,-0.149
-0.181,0.233,0.4135,-0.026,-0.297,0.3235,0.2575,0.3125,0.2865,-0.0115,0.0705,-0.1335,0.0545,0.215,-0.15
-0.175,0.238,0.4125,-0.0315,-0.293,0.325,0.2525,0.3095,0.2845,-0.013,0.0695,-0.1325,0.0565,0.2155,-0.149
-0.1665,0.2435,0.41,-0.0385,-0.2875,0.3265,0.2535,0.31,0.2845,-0.0145,0.071,-0.1305,0.057,0.215,-0.1505
-0.169,0.24,0.409,-0.0355,-0.2885,0.3245,0.2545,0.302,0.281,-0.016,0.07,-0.1335,0.056,0.2145,-0.1505
-0.1775,0.241,0.418,-0.032,-0.297,0.3295,0.258,0.3085,0.2825,-0.0135,0.0725,-0.131,0.0535,0.219,-0.1525
-0.183,0.237,0.4195,-0.027,-0.301,0.328,0.263,0.315,0.285,-0.0095,0.0755,-0.13,0.053,0.2225,-0.155
-0.1805,0.2335,0.4145,-0.0265,-0.297,0.324,0.254,0.3085,0.283,-0.011,0.0745,-0.131,0.0555,0.222,-0.152
-0.1755,0.2375,0.413,-0.031,-0.2935,0.3255,0.2545,0.3095,0.282,-0.013,0.0745,-0.1305,0.056,0.2255,-0.1525
-0.1815,0.233,0.4145,-0.0255,-0.2975,0.324,0.2545,0.3055,0.2785,-0.017,0.072,-0.134,0.052,0.227,-0.152
-0.1795,0.2335,0.413,-0.027,-0.2955,0.323,0.2505,0.3,0.276,-0.0185,0.072,-0.134,0.054,0.2275,-0.1495
-0.1735,0.237,0.4105,-0.032,-0.2915,0.324,0.2545,0.301,0.279,-0.015,0.0735,-0.132,0.0565,0.2255,-0.151
-0.175,0.2325,0.407,-0.0285,-0.2905,0.3195,0.254,0.309,0.2815,-0.014,0.0745,-0.1325,0.0565,0.22,-0.1505
-0.176,0.23,0.406,-0.027,-0.2905,0.318,0.2555,0.31,0.279,-0.016,0.074,-0.1325,0.0575,0.2205,-0.149
-0.17,0.233,0.403,-0.0315,-0.286,0.318,0.2565,0.3095,0.2815,-0.0145,0.075,-0.13,0.0545,0.222,-0.151
-0.1715,0.2325,0.4035,-0.0305,-0.287,0.318,0.261,0.3085,0.2815,-0.015,0.076,-0.129,0.056,0.217,-0.1485
-0.1725,0.23,0.4025,-0.029,-0.287,0.3165,0.2595,0.3055,0.2765,-0.018,0.0755,-0.1295,0.0585,0.2105,-0.1465
-0.1735,0.2285,0.402,-0.0275,-0.2875,0.315,0.254,0.306,0.275,-0.021,0.0735,-0.129,0.0565,0.205,-0.147
-0.1795,0.229,0.409,-0.0245,-0.2935,0.319,0.2585,0.3025,0.274,-0.024,0.071,-0.129,0.055,0.204,-0.146
-0.1785,0.23,0.409,-0.0255,-0.293,0.3195,0.257,0.3025,0.273,-0.023,0.0715,-0.1295,0.055,0.2015,-0.1465
-0.183,0.227,0.4105,-0.022,-0.296,0.3185,0.259,0.304,0.2725,-0.0215,0.0705,-0.131,0.0545,0.2035,-0.1465
-0.1825,0.227,0.41,-0.022,-0.2955,0.3185,0.2595,0.3035,0.273,-0.0235,0.07,-0.1315,0.0545,0.2055,-0.1445
-0.1815,0.227,0.4085,-0.023,-0.2945,0.318,0.259,0.3035,0.2715,-0.0255,0.069,-0.1325,0.054,0.209,-0.1445
-0.1775,0.2295,0.407,-0.026,-0.2915,0.318,0.2575,0.302,0.2685,-0.026,0.07,-0.133,0.0545,0.216,-0.1435
-0.173,0.231,0.4045,-0.029,-0.288,0.318,0.2565,0.301,0.267,-0.0295,0.07,-0.132,0.058,0.2175,-0.142
-0.177,0.229,0.4065,-0.026,-0.291,0.318,0.2525,0.297,0.264,-0.0335,0.065,-0.135,0.056,0.214,-0.143
-0.178,0.23,0.408,-0.026,-0.2925,0.319,0.2525,0.295,0.262,-0.0345,0.066,-0.1365,0.0545,0.211,-0.143
-0.1775,0.2305,0.408,-0.0265,-0.2925,0.3195,0.2605,0.2965,0.2625,-0.034,0.067,-0.1345,0.0525,0.211,-0.1455
-0.177,0.229,0.4055,-0.026,-0.2905,0.3175,0.2565,0.296,0.262,-0.033,0.0645,-0.136,0.0505,0.211,-0.1455
-0.177,0.229,0.406,-0.026,-0.291,0.3175,0.257,0.2955,0.26,-0.0355,0.0635,-0.135,0.053,0.208,-0.142
-0.179,0.2275,0.407,-0.024,-0.2925,0.317,0.257,0.2925,0.2585,-0.037,0.065,-0.133,0.0535,0.208,-0.1425
-0.178,0.2265,0.4045,-0.0245,-0.2905,0.3155,0.256,0.2935,0.26,-0.034,0.066,-0.132,0.054,0.2075,-0.144
-0.1785,0.223,0.402,-0.0225,-0.2895,0.3125,0.257,0.295,0.2605,-0.034,0.067,-0.1315,0.054,0.199,-0.1425
-0.1835,0.2205,0.404,-0.0185,-0.293,0.3125,0.26,0.294,0.2595,-0.0345,0.067,-0.1325,0.0525,0.1975,-0.1425
-0.1835,0.2175,0.4015,-0.017,-0.292,0.3095,0.26,0.2935,0.258,-0.0355,0.066,-0.1325,0.052,0.193,-0.141
-0.1835,0.2145,0.398,-0.0155,-0.29,0.306,0.256,0.2905,0.2555,-0.036,0.066,-0.1325,0.052,0.1915,-0.1385
-0.182,0.218,0.4,-0.018,-0.2905,0.309,0.2605,0.29,0.255,-0.036,0.0645,-0.132,0.053,0.198,-0.1405
-0.181,0.217,0.398,-0.018,-0.289,0.3075,0.255,0.2885,0.253,-0.0385,0.061,-0.134,0.0515,0.1955,-0.1395
-0.184,0.216,0.4,-0.016,-0.2915,0.308,0.255,0.289,0.2535,-0.041,0.057,-0.138,0.049,0.199,-0.1395
-0.185,0.217,0.4025,-0.0165,-0.293,0.31,0.2605,0.292,0.253,-0.042,0.0545,-0.1395,0.0475,0.198,-0.1405
-0.179,0.2195,0.398,-0.02,-0.288,0.309,0.258,0.2915,0.251,-0.041,0.054,-0.1395,0.046,0.196,-0.1405
-0.1745,0.2195,0.394,-0.0225,-0.2835,0.3065,0.2555,0.2905,0.251,-0.0415,0.0545,-0.1415,0.0465,0.2015,-0.14
-0.1745,0.222,0.3965,-0.0235,-0.285,0.3095,0.252,0.2885,0.2475,-0.046,0.051,-0.1445,0.047,0.203,-0.138
-0.179,0.223,0.4025,-0.022,-0.29,0.3125,0.2535,0.288,0.246,-0.0485,0.0495,-0.146,0.044,0.2055,-0.139
-0.1855,0.2205,0.406,-0.0175,-0.295,0.3135,0.2565,0.288,0.2465,-0.0495,0.05,-0.1465,0.0415,0.204,-0.139
-0.185,0.2225,0.408,-0.019,-0.296,0.3155,0.2545,0.2865,0.2455,-0.048,0.0515,-0.1445,0.0425,0.2035,-0.1375
-0.1835,0.223,0.4065,-0.0195,-0.2945,0.3145,0.255,0.2845,0.244,-0.051,0.0505,-0.148,0.0415,0.206,-0.137
-0.181,0.2235,0.4045,-0.0215,-0.292,0.314,0.257,0.286,0.2435,-0.049,0.0525,-0.147,0.043,0.1995,-0.1365
-0.1805,0.225,0.406,-0.022,-0.2925,0.3155,0.2525,0.2855,0.246,-0.046,0.056,-0.144,0.044,0.201,-0.1375
-0.1755,0.227,0.4025,-0.026,-0.2885,0.3145,0.2555,0.2845,0.246,-0.0495,0.054,-0.146,0.044,0.2115,-0.138
-0.17,0.2265,0.3965,-0.0285,-0.2825,0.3115,0.2535,0.2835,0.243,-0.0495,0.054,-0.1445,0.0455,0.212,-0.135
-0.176,0.2215,0.398,-0.023,-0.2865,0.31,0.2505,0.282,0.2425,-0.048,0.056,-0.143,0.0455,0.2085,-0.133
-0.18,0.221,0.401,-0.0205,-0.29,0.311,0.255,0.2855,0.244,-0.046,0.056,-0.142,0.043,0.2095,-0.1365
-0.181,0.219,0.4,-0.019,-0.29,0.3095,0.2555,0.285,0.2415,-0.047,0.055,-0.142,0.043,0.209,-0.136
-0.185,0.216,0.4015,-0.0155,-0.293,0.309,0.258,0.2835,0.2425,-0.0485,0.055,-0.142,0.043,0.2005,-0.1365
-0.188,0.2135,0.4015,-0.0125,-0.294,0.307,0.256,0.2825,0.246,-0.049,0.055,-0.143,0.0395,0.198,-0.1385
-0.19,0.208,0.398,-0.009,-0.2935,0.303,0.2535,0.283,0.2395,-0.052,0.0555,-0.143,0.0405,0.2005,-0.136
-0.1925,0.2085,0.4015,-0.008,-0.2965,0.305,0.2525,0.283,0.236,-0.054,0.0555,-0.141,0.04,0.197,-0.1345
-0.191,0.2115,0.4025,-0.01,-0.296,0.307,0.252,0.2805,0.237,-0.054,0.0565,-0.141,0.04,0.1975,-0.135
-0.1905,0.2085,0.399,-0.009,-0.2945,0.304,0.2465,0.277,0.235,-0.0545,0.0535,-0.1405,0.042,0.1975,-0.133
-0.1915,0.208,0.3995,-0.0085,-0.295,0.3035,0.2505,0.28,0.2345,-0.054,0.052,-0.141,0.039,0.2005,-0.1345
-0.194,0.2105,0.4045,-0.008,-0.299,0.307,0.256,0.2815,0.235,-0.0555,0.052,-0.1435,0.0355,0.2095,-0.136
-0.1925,0.209,0.401,-0.008,-0.2965,0.305,0.2505,0.275,0.2315,-0.0595,0.05,-0.1435,0.037,0.209,-0.132
-0.1885,0.211,0.3995,-0.011,-0.2935,0.305,0.2515,0.276,0.2325,-0.0595,0.05,-0.142,0.039,0.2085,-0.1325
-0.1905,0.2105,0.401,-0.01,-0.295,0.3055,0.251,0.276,0.2325,-0.059,0.0485,-0.1425,0.0395,0.202,-0.134
-0.1905,0.211,0.4015,-0.01,-0.2955,0.306,0.252,0.275,0.2305,-0.0585,0.0495,-0.143,0.039,0.198,-0.1335
-0.188,0.215,0.403,-0.0135,-0.295,0.309,0.251,0.2745,0.2295,-0.0615,0.0485,-0.1435,0.0385,0.2025,-0.1315
-0.187,0.213,0.4,-0.013,-0.293,0.3065,0.2485,0.2695,0.2275,-0.0645,0.049,-0.1435,0.04,0.201,-0.1315
-0.1865,0.213,0.3995,-0.013,-0.2925,0.306,0.251,0.277,0.2295,-0.062,0.052,-0.143,0.039,0.2005,-0.132
-0.186,0.2135,0.3995,-0.0135,-0.2925,0.3065,0.2505,0.2775,0.2295,-0.063,0.052,-0.1445,0.038,0.2,-0.132
-0.187,0.213,0.4,-0.013,-0.293,0.3065,0.2485,0.2735,0.229,-0.063,0.053,-0.144,0.04,0.2025,-0.1315
-0.183,0.213,0.396,-0.015,-0.289,0.304,0.246,0.273,0.226,-0.0625,0.0515,-0.144,0.041,0.1995,-0.1315
-0.1825,0.2125,0.3945,-0.015,-0.288,0.3035,0.247,0.2715,0.2255,-0.0645,0.052,-0.1445,0.0405,0.1945,-0.1305
-0.186,0.212,0.3975,-0.013,-0.2915,0.3045,0.248,0.272,0.226,-0.0615,0.0525,-0.142,0.042,0.1965,-0.1295
-0.1905,0.2075,0.398,-0.0085,-0.294,0.3025,0.2455,0.2685,0.2215,-0.0645,0.05,-0.145,0.0395,0.2,-0.13
-0.194,0.206,0.4,-0.006,-0.2965,0.303,0.2515,0.2705,0.221,-0.066,0.049,-0.146,0.036,0.2035,-0.131
-0.1975,0.2055,0.403,-0.004,-0.2995,0.304,0.2475,0.269,0.2195,-0.0675,0.049,-0.1445,0.036,0.2035,-0.132
-0.187,0.213,0.4,-0.013,-0.293,0.3065,0.2425,0.271,0.22,-0.0685,0.0495,-0.1435,0.041,0.2085,-0.13
-0.1755,0.22,0.3955,-0.022,-0.285,0.3075,0.243,0.2675,0.223,-0.066,0.0505,-0.1415,0.0455,0.2085,-0.127
-0.171,0.223,0.394,-0.026,-0.282,0.3085,0.243,0.2655,0.224,-0.0635,0.0515,-0.1405,0.048,0.2035,-0.1245
-0.1645,0.2285,0.393,-0.032,-0.278,0.311,0.248,0.281,0.229,-0.0595,0.056,-0.136,0.0515,0.201,-0.1225
-0.1705,0.2275,0.398,-0.029,-0.2835,0.313,0.2555,0.2795,0.2285,-0.0575,0.0565,-0.136,0.0455,0.197,-0.125
-0.174,0.2305,0.4045,-0.0285,-0.2885,0.3175,0.26,0.2765,0.2295,-0.0565,0.058,-0.1345,0.0445,0.1975,-0.125
-0.165,0.233,0.398,-0.034,-0.281,0.3155,0.244,0.27,0.227,-0.061,0.057,-0.136,0.0445,0.1965,-0.1225
-0.162,0.2345,0.397,-0.036,-0.279,0.3155,0.2485,0.2725,0.225,-0.0595,0.056,-0.137,0.043,0.1965,-0.1245
-0.1655,0.2345,0.4005,-0.0345,-0.2825,0.3175,0.2525,0.28,0.228,-0.0575,0.057,-0.1355,0.0435,0.196,-0.1265
-0.1655,0.235,0.4,-0.0345,-0.2825,0.3175,0.25,0.2755,0.2285,-0.0585,0.0555,-0.1375,0.041,0.1985,-0.1285
-0.173,0.232,0.405,-0.0295,-0.2885,0.3185,0.2575,0.274,0.227,-0.059,0.0555,-0.1365,0.04,0.199,-0.128
-0.17,0.231,0.401,-0.0305,-0.285,0.316,0.2515,0.275,0.2255,-0.0615,0.0545,-0.138,0.039,0.1945,-0.1265
-0.168,0.2335,0.4015,-0.033,-0.2845,0.3175,0.25,0.2795,0.228,-0.059,0.0545,-0.136,0.04,0.197,-0.1265
-0.1745,0.229,0.404,-0.0275,-0.2885,0.3165,0.2525,0.278,0.2265,-0.0615,0.055,-0.136,0.038,0.198,-0.126
-0.1745,0.2265,0.401,-0.026,-0.2875,0.314,0.255,0.276,0.224,-0.061,0.0545,-0.1365,0.0375,0.1965,-0.1255
-0.1745,0.227,0.4015,-0.026,-0.2875,0.314,0.2525,0.274,0.2245,-0.06,0.054,-0.1365,0.0355,0.199,-0.1255
-0.1725,0.227,0.399,-0.0275,-0.285,0.313,0.2505,0.2725,0.226,-0.061,0.053,-0.139,0.033,0.198,-0.126
-0.1715,0.2275,0.399,-0.0285,-0.2845,0.3135,0.2515,0.2745,0.2265,-0.0605,0.0535,-0.14,0.036,0.192,-0.1245
-0.1615,0.2325,0.394,-0.0355,-0.2775,0.3135,0.2495,0.273,0.2275,-0.06,0.055,-0.138,0.0375,0.196,-0.1225
-0.1595,0.2315,0.3915,-0.036,-0.275,0.3115,0.2495,0.2705,0.226,-0.06,0.056,-0.137,0.0375,0.193,-0.1225
-0.1645,0.2295,0.394,-0.0325,-0.279,0.312,0.25,0.271,0.223,-0.062,0.0535,-0.1405,0.034,0.1925,-0.1235
-0.161,0.2345,0.3955,-0.0365,-0.278,0.315,0.252,0.2755,0.2255,-0.0605,0.0525,-0.141,0.036,0.1965,-0.123
-0.161,0.2345,0.3955,-0.037,-0.278,0.315,0.254,0.2775,0.2275,-0.059,0.0535,-0.1395,0.035,0.1915,-0.1235
-0.1645,0.232,0.3965,-0.0335,-0.28,0.314,0.252,0.272,0.225,-0.0615,0.05,-0.141,0.0315,0.1935,-0.1235
-0.1675,0.233,0.4005,-0.0325,-0.284,0.317,0.254,0.274,0.2245,-0.0625,0.048,-0.1435,0.0305,0.2,-0.1225
-0.169,0.2315,0.401,-0.0315,-0.2845,0.3165,0.2515,0.2725,0.2235,-0.0655,0.0425,-0.147,0.0285,0.197,-0.1215
-0.1705,0.231,0.4015,-0.03,-0.2855,0.316,0.2495,0.2695,0.2225,-0.068,0.039,-0.1485,0.0285,0.192,-0.12
-0.168,0.2335,0.401,-0.033,-0.284,0.317,0.2525,0.2765,0.2245,-0.0645,0.0415,-0.148,0.03,0.195,-0.1195
-0.1685,0.2335,0.402,-0.0325,-0.285,0.3175,0.2525,0.2755,0.225,-0.066,0.0415,-0.1475,0.03,0.1945,-0.1185
-0.176,0.2285,0.405,-0.0265,-0.29,0.317,0.2515,0.2705,0.2225,-0.069,0.0395,-0.15,0.026,0.192,-0.117
-0.1715,0.2265,0.398,-0.028,-0.284,0.3125,0.249,0.2695,0.221,-0.07,0.0395,-0.1495,0.0255,0.1955,-0.1155
-0.1645,0.233,0.3975,-0.0345,-0.2805,0.3155,0.2525,0.2695,0.2215,-0.0685,0.043,-0.146,0.026,0.203,-0.116
-0.17,0.232,0.402,-0.031,-0.2855,0.317,0.25,0.268,0.219,-0.0695,0.043,-0.146,0.03,0.2005,-0.114
-0.172,0.23,0.402,-0.029,-0.2865,0.316,0.2485,0.2675,0.2185,-0.0715,0.0435,-0.1455,0.033,0.2025,-0.113
-0.166,0.234,0.4,-0.034,-0.2825,0.317,0.248,0.269,0.2175,-0.0705,0.0455,-0.143,0.0345,0.2055,-0.114
-0.164,0.2325,0.396,-0.034,-0.2795,0.3145,0.2445,0.2685,0.2165,-0.0695,0.0475,-0.141,0.0375,0.2015,-0.115
-0.17,0.231,0.401,-0.0305,-0.285,0.316,0.25,0.2665,0.218,-0.069,0.049,-0.138,0.034,0.199,-0.1175
-0.167,0.2355,0.402,-0.034,-0.284,0.3185,0.251,0.2675,0.2175,-0.068,0.0505,-0.1355,0.035,0.2,-0.1145
-0.159,0.2375,0.396,-0.039,-0.277,0.3165,0.25,0.272,0.219,-0.0665,0.052,-0.136,0.036,0.203,-0.113
-0.1605,0.234,0.3945,-0.037,-0.277,0.314,0.245,0.264,0.2155,-0.071,0.048,-0.136,0.037,0.196,-0.115
-0.1615,0.234,0.3955,-0.036,-0.278,0.3145,0.246,0.263,0.2145,-0.071,0.048,-0.1345,0.038,0.2,-0.1165
-0.166,0.236,0.4025,-0.0345,-0.284,0.319,0.2485,0.2685,0.2215,-0.066,0.0505,-0.133,0.0355,0.2065,-0.119
-0.1635,0.239,0.402,-0.0375,-0.2825,0.3205,0.2505,0.269,0.2205,-0.0655,0.052,-0.132,0.036,0.2085,-0.1185
-0.158,0.2405,0.3985,-0.0415,-0.2775,0.3195,0.2505,0.269,0.2175,-0.067,0.0545,-0.132,0.0385,0.205,-0.114
-0.165,0.237,0.4025,-0.036,-0.2835,0.3195,0.249,0.2675,0.218,-0.068,0.0525,-0.134,0.036,0.198,-0.113
-0.1705,0.2325,0.403,-0.031,-0.2865,0.318,0.2515,0.2675,0.216,-0.069,0.0535,-0.135,0.0335,0.2005,-0.1135
-0.168,0.233,0.401,-0.0325,-0.284,0.317,0.2405,0.261,0.215,-0.07,0.053,-0.1345,0.033,0.1975,-0.1145
-0.1635,0.238,0.4015,-0.037,-0.282,0.32,0.2485,0.268,0.2165,-0.0675,0.055,-0.1315,0.0335,0.201,-0.116
-0.1645,0.2375,0.402,-0.0365,-0.283,0.32,0.254,0.2695,0.2185,-0.066,0.057,-0.131,0.0365,0.193,-0.115
-0.1695,0.2335,0.403,-0.032,-0.2855,0.318,0.247,0.263,0.219,-0.067,0.0555,-0.132,0.0395,0.184,-0.113
-0.1665,0.235,0.4015,-0.0345,-0.2835,0.3185,0.252,0.2695,0.219,-0.066,0.0555,-0.1295,0.0425,0.187,-0.112
-0.155,0.2395,0.3945,-0.042,-0.2745,0.317,0.2535,0.2715,0.22,-0.066,0.055,-0.129,0.0425,0.183,-0.112
-0.154,0.24,0.3935,-0.043,-0.273,0.3165,0.2495,0.2695,0.219,-0.067,0.055,-0.128,0.0445,0.186,-0.1115
-0.1615,0.2355,0.397,-0.037,-0.279,0.3165,0.2465,0.2655,0.2145,-0.071,0.052,-0.13,0.042,0.1875,-0.111
-0.161,0.2365,0.3975,-0.0375,-0.279,0.317,0.2475,0.2645,0.213,-0.0735,0.0505,-0.1305,0.039,0.186,-0.111
-0.1605,0.236,0.396,-0.038,-0.2775,0.316,0.251,0.2695,0.217,-0.07,0.053,-0.1285,0.041,0.186,-0.1135
-0.158,0.233,0.391,-0.0375,-0.274,0.312,0.248,0.27,0.217,-0.0705,0.053,-0.129,0.0395,0.179,-0.1115
-0.161,0.234,0.395,-0.0365,-0.2775,0.3145,0.246,0.2665,0.2145,-0.072,0.053,-0.1295,0.038,0.1815,-0.1115
-0.165,0.2325,0.3975,-0.034,-0.2805,0.315,0.2495,0.267,0.215,-0.0715,0.0515,-0.1315,0.036,0.1895,-0.1125
-0.158,0.2365,0.3945,-0.0395,-0.276,0.316,0.2465,0.2665,0.2145,-0.0715,0.053,-0.131,0.0375,0.188,-0.113
-0.154,0.241,0.395,-0.0435,-0.274,0.318,0.247,0.2655,0.2165,-0.07,0.056,-0.1305,0.0395,0.192,-0.114
-0.154,0.2405,0.3945,-0.0435,-0.2735,0.3175,0.247,0.2655,0.216,-0.0705,0.0545,-0.132,0.0395,0.1925,-0.113
-0.1545,0.24,0.3945,-0.043,-0.274,0.317,0.2465,0.265,0.2145,-0.07,0.0535,-0.1315,0.0395,0.1885,-0.1125
-0.1575,0.237,0.3945,-0.04,-0.275,0.316,0.246,0.264,0.212,-0.0725,0.053,-0.133,0.0385,0.1805,-0.1095
-0.1655,0.2315,0.3975,-0.033,-0.281,0.3145,0.25,0.264,0.213,-0.073,0.051,-0.1355,0.0345,0.179,-0.112
-0.164,0.231,0.395,-0.0335,-0.279,0.313,0.2495,0.263,0.216,-0.0725,0.0495,-0.136,0.036,0.1815,-0.112
-0.1625,0.234,0.3965,-0.0355,-0.279,0.315,0.2455,0.264,0.211,-0.0755,0.0465,-0.1375,0.0385,0.1815,-0.1085
-0.1665,0.231,0.3975,-0.032,-0.2815,0.3145,0.2455,0.2625,0.209,-0.075,0.046,-0.1375,0.0365,0.1845,-0.11
-0.161,0.236,0.397,-0.0375,-0.2785,0.3165,0.243,0.2585,0.2095,-0.0735,0.049,-0.1365,0.0385,0.1875,-0.111
-0.1605,0.242,0.4025,-0.0405,-0.281,0.322,0.2475,0.266,0.2125,-0.072,0.051,-0.135,0.038,0.1955,-0.1125
-0.166,0.24,0.4065,-0.037,-0.286,0.3235,0.2485,0.2675,0.213,-0.0725,0.051,-0.136,0.0355,0.195,-0.1125
-0.166,0.2395,0.405,-0.0365,-0.285,0.322,0.2475,0.263,0.2105,-0.0735,0.05,-0.138,0.0335,0.194,-0.1105
-0.161,0.237,0.398,-0.038,-0.279,0.3175,0.244,0.261,0.209,-0.0765,0.0505,-0.138,0.034,0.195,-0.1075
-0.1585,0.2395,0.398,-0.04,-0.278,0.3185,0.2415,0.261,0.2085,-0.075,0.052,-0.1365,0.038,0.1955,-0.1065
-0.1605,0.24,0.4,-0.04,-0.28,0.32,0.2485,0.2615,0.21,-0.0715,0.0545,-0.136,0.0365,0.1985,-0.1095
-0.1645,0.236,0.4005,-0.0355,-0.2825,0.3185,0.246,0.26,0.2075,-0.0735,0.0545,-0.136,0.0345,0.196,-0.1095
-0.161,0.238,0.399,-0.0385,-0.2795,0.3185,0.242,0.262,0.2105,-0.073,0.0545,-0.1375,0.0365,0.1925,-0.11
-0.1585,0.2405,0.399,-0.041,-0.2785,0.3195,0.2445,0.263,0.2105,-0.0725,0.0535,-0.1375,0.0355,0.19,-0.109
-0.16,0.239,0.399,-0.0395,-0.279,0.319,0.2425,0.262,0.2055,-0.075,0.0515,-0.1365,0.033,0.194,-0.1055
-0.1595,0.2415,0.401,-0.0415,-0.28,0.3215,0.2515,0.262,0.207,-0.0745,0.0535,-0.135,0.032,0.1975,-0.1075
-0.1575,0.241,0.3985,-0.042,-0.2775,0.32,0.2495,0.2595,0.205,-0.0745,0.052,-0.135,0.032,0.1895,-0.106
-0.1525,0.239,0.3915,-0.0435,-0.2715,0.3155,0.239,0.256,0.201,-0.0775,0.048,-0.1365,0.0325,0.1835,-0.1045
-0.1445,0.2455,0.39,-0.0505,-0.267,0.318,0.244,0.2595,0.205,-0.074,0.0505,-0.1355,0.035,0.1885,-0.1075
-0.144,0.2495,0.3935,-0.053,-0.268,0.3215,0.247,0.2605,0.2065,-0.071,0.053,-0.132,0.0355,0.1905,-0.1075
-0.1495,0.248,0.397,-0.049,-0.2725,0.3225,0.2525,0.2615,0.206,-0.072,0.053,-0.134,0.035,0.1905,-0.1075
-0.1555,0.242,0.3975,-0.043,-0.276,0.3195,0.2465,0.263,0.2055,-0.0745,0.0505,-0.137,0.034,0.194,-0.1065
-0.167,0.2385,0.4055,-0.036,-0.2855,0.322,0.2415,0.2595,0.201,-0.0785,0.0495,-0.1365,0.032,0.1905,-0.105
-0.165,0.2405,0.4055,-0.0375,-0.2845,0.323,0.245,0.259,0.2025,-0.0765,0.051,-0.1345,0.0345,0.189,-0.106
-0.1585,0.2445,0.4025,-0.043,-0.28,0.3235,0.2425,0.2615,0.2055,-0.0745,0.053,-0.132,0.038,0.1955,-0.105
-0.1575,0.2465,0.404,-0.0445,-0.2805,0.325,0.2475,0.2645,0.2085,-0.0745,0.0555,-0.1325,0.0365,0.1995,-0.1045
-0.1585,0.244,0.402,-0.043,-0.28,0.323,0.2485,0.2615,0.206,-0.075,0.052,-0.1335,0.036,0.197,-0.1025
-0.1625,0.2425,0.405,-0.04,-0.2835,0.324,0.2465,0.26,0.203,-0.0765,0.0495,-0.1335,0.0355,0.1975,-0.102
-0.163,0.242,0.4055,-0.0395,-0.284,0.324,0.247,0.2615,0.202,-0.078,0.048,-0.1345,0.0345,0.1985,-0.103
-0.1615,0.244,0.405,-0.0415,-0.2825,0.3245,0.2485,0.2585,0.199,-0.0805,0.047,-0.1355,0.0345,0.1955,-0.1035
-0.1575,0.2445,0.402,-0.0435,-0.2795,0.323,0.25,0.2575,0.202,-0.077,0.0515,-0.1345,0.0345,0.194,-0.105
-0.151,0.2435,0.3945,-0.046,-0.272,0.319,0.2465,0.2595,0.204,-0.073,0.0535,-0.132,0.0375,0.193,-0.1025
-0.149,0.2445,0.393,-0.0475,-0.2705,0.3185,0.2435,0.2595,0.205,-0.0735,0.0525,-0.132,0.036,0.1925,-0.101
-0.155,0.239,0.394,-0.042,-0.274,0.3165,0.2465,0.259,0.204,-0.075,0.0505,-0.136,0.0325,0.1885,-0.1025
-0.155,0.2385,0.3935,-0.042,-0.2735,0.316,0.2445,0.26,0.2035,-0.077,0.0485,-0.138,0.03,0.1935,-0.1035
-0.1545,0.2415,0.396,-0.0435,-0.2745,0.3185,0.2455,0.2595,0.204,-0.0765,0.0495,-0.136,0.031,0.198,-0.1045
-0.159,0.238,0.397,-0.0395,-0.2775,0.3175,0.249,0.2605,0.203,-0.0775,0.048,-0.1385,0.033,0.191,-0.1035
-0.1615,0.237,0.3985,-0.0375,-0.2795,0.3175,0.2395,0.2525,0.199,-0.0815,0.0425,-0.1425,0.031,0.1855,-0.102
-0.1625,0.2385,0.4005,-0.038,-0.281,0.3195,0.2445,0.254,0.2005,-0.079,0.0435,-0.141,0.0305,0.186,-0.1045
-0.1615,0.242,0.4035,-0.04,-0.282,0.3225,0.2475,0.2615,0.204,-0.0785,0.0435,-0.14,0.0295,0.1915,-0.1065
-0.1575,0.245,0.402,-0.0435,-0.2795,0.3235,0.242,0.26,0.1995,-0.081,0.042,-0.1405,0.029,0.19,-0.1045
-0.159,0.244,0.4025,-0.0425,-0.2805,0.323,0.247,0.261,0.2005,-0.081,0.042,-0.14,0.0295,0.194,-0.1035
-0.163,0.2395,0.4025,-0.038,-0.2825,0.321,0.2425,0.2515,0.1965,-0.0845,0.0395,-0.143,0.0275,0.1955,-0.1035
-0.157,0.242,0.399,-0.0425,-0.2775,0.3205,0.2405,0.256,0.1975,-0.082,0.0415,-0.14,0.03,0.193,-0.1055
-0.1595,0.246,0.4055,-0.0435,-0.282,0.3255,0.2445,0.2645,0.203,-0.079,0.046,-0.135,0.0335,0.1935,-0.105
-0.16,0.247,0.407,-0.0435,-0.283,0.327,0.243,0.258,0.2005,-0.0805,0.0455,-0.1355,0.033,0.191,-0.103
-0.157,0.2465,0.403,-0.045,-0.2795,0.3245,0.2445,0.2575,0.2015,-0.0805,0.045,-0.1355,0.032,0.1945,-0.101
-0.1595,0.2455,0.4045,-0.043,-0.2815,0.325,0.2455,0.2575,0.199,-0.0815,0.0455,-0.135,0.033,0.1985,-0.1
-0.157,0.249,0.406,-0.046,-0.2815,0.3275,0.242,0.2525,0.198,-0.081,0.0455,-0.1345,0.033,0.2,-0.1
-0.1575,0.2485,0.406,-0.0455,-0.281,0.327,0.245,0.2575,0.201,-0.078,0.048,-0.1325,0.035,0.197,-0.1
-0.159,0.2465,0.4055,-0.0435,-0.2815,0.326,0.243,0.259,0.199,-0.079,0.048,-0.132,0.0355,0.1975,-0.1015
-0.163,0.2435,0.4065,-0.04,-0.284,0.325,0.239,0.2545,0.197,-0.08,0.048,-0.1335,0.033,0.194,-0.102
-0.164,0.243,0.407,-0.0395,-0.285,0.3245,0.2435,0.259,0.1985,-0.078,0.0505,-0.135,0.033,0.1915,-0.1045
-0.161,0.245,0.4055,-0.042,-0.283,0.3255,0.2425,0.258,0.2,-0.0785,0.051,-0.133,0.0335,0.1905,-0.1055
-0.161,0.2445,0.405,-0.0415,-0.2825,0.325,0.244,0.2555,0.1975,-0.077,0.053,-0.13,0.0355,0.1875,-0.105
-0.16,0.2435,0.403,-0.042,-0.281,0.3235,0.2455,0.259,0.1995,-0.076,0.0535,-0.1285,0.037,0.1835,-0.1065
-0.158,0.244,0.4015,-0.043,-0.2795,0.3225,0.2425,0.2605,0.2025,-0.0775,0.0535,-0.129,0.0375,0.1845,-0.106
-0.1555,0.2445,0.3995,-0.0445,-0.277,0.322,0.243,0.2585,0.2005,-0.077,0.0545,-0.1285,0.0395,0.188,-0.1055
-0.153,0.246,0.3985,-0.0465,-0.275,0.3225,0.245,0.2595,0.201,-0.0745,0.054,-0.127,0.0385,0.1865,-0.1045
-0.1495,0.2475,0.397,-0.049,-0.273,0.3225,0.2435,0.259,0.202,-0.0755,0.0525,-0.129,0.038,0.187,-0.1035
-0.151,0.2475,0.399,-0.0485,-0.2745,0.323,0.2425,0.2595,0.202,-0.077,0.0515,-0.1285,0.0375,0.1885,-0.1035
-0.1545,0.2495,0.404,-0.0475,-0.2785,0.3265,0.2445,0.264,0.2025,-0.0755,0.051,-0.1285,0.036,0.195,-0.103
-0.1535,0.2475,0.401,-0.047,-0.2765,0.3245,0.2415,0.2585,0.202,-0.0765,0.05,-0.13,0.0355,0.193,-0.104
-0.1575,0.244,0.4015,-0.043,-0.279,0.323,0.241,0.2595,0.2,-0.0765,0.051,-0.129,0.036,0.193,-0.1055
-0.1615,0.2455,0.4065,-0.042,-0.2835,0.326,0.242,0.263,0.202,-0.0745,0.052,-0.13,0.0365,0.1965,-0.107
-0.1605,0.2455,0.406,-0.0425,-0.2825,0.326,0.2495,0.2615,0.204,-0.073,0.053,-0.131,0.036,0.196,-0.1075
-0.161,0.2465,0.4075,-0.0425,-0.2835,0.327,0.253,0.262,0.2025,-0.0735,0.053,-0.1285,0.034,0.1975,-0.1075
-0.161,0.2455,0.4065,-0.0425,-0.283,0.326,0.252,0.265,0.2035,-0.0745,0.0525,-0.1275,0.0355,0.194,-0.107
-0.156,0.246,0.4015,-0.045,-0.2785,0.3235,0.2515,0.264,0.202,-0.075,0.054,-0.1285,0.0395,0.1945,-0.1055
-0.1545,0.248,0.403,-0.047,-0.2785,0.3255,0.252,0.263,0.2025,-0.075,0.0545,-0.1285,0.039,0.2025,-0.108
-0.161,0.246,0.407,-0.0425,-0.2835,0.3265,0.2545,0.2625,0.2005,-0.0775,0.0505,-0.132,0.0325,0.208,-0.11
-0.1595,0.248,0.4075,-0.0445,-0.283,0.328,0.2545,0.2595,0.1995,-0.078,0.049,-0.133,0.0325,0.2085,-0.1105
-0.1525,0.2525,0.405,-0.05,-0.2785,0.3285,0.2545,0.2635,0.2035,-0.0735,0.051,-0.128,0.0375,0.2115,-0.111
-0.1525,0.255,0.407,-0.0515,-0.279,0.331,0.2545,0.2665,0.2015,-0.0755,0.0505,-0.1295,0.0375,0.214,-0.109
-0.152,0.2545,0.4065,-0.0515,-0.2785,0.3305,0.2535,0.2635,0.2,-0.0795,0.049,-0.1325,0.0365,0.2095,-0.108
-0.1555,0.2495,0.405,-0.047,-0.28,0.327,0.2555,0.2635,0.198,-0.0805,0.0455,-0.1345,0.0355,0.2015,-0.109
-0.163,0.242,0.405,-0.0395,-0.2835,0.3235,0.2565,0.266,0.196,-0.0835,0.044,-0.1375,0.034,0.1955,-0.11
-0.1595,0.2415,0.4005,-0.041,-0.2795,0.321,0.254,0.259,0.194,-0.0865,0.0415,-0.1395,0.035,0.193,-0.1085
-0.154,0.241,0.395,-0.0435,-0.274,0.318,0.2535,0.2625,0.195,-0.084,0.0385,-0.1415,0.0345,0.183,-0.1075
-0.1575,0.2405,0.398,-0.0415,-0.2775,0.319,0.26,0.267,0.197,-0.0815,0.0405,-0.14,0.033,0.1795,-0.1105
-0.1585,0.242,0.4005,-0.042,-0.279,0.3215,0.262,0.2695,0.196,-0.083,0.0395,-0.14,0.032,0.177,-0.1105
-0.1575,0.241,0.398,-0.042,-0.2775,0.32,0.2595,0.2705,0.199,-0.0825,0.039,-0.1425,0.0335,0.169,-0.109
-0.158,0.243,0.4015,-0.0425,-0.279,0.322,0.264,0.2695,0.1975,-0.082,0.041,-0.142,0.0355,0.174,-0.11
-0.1545,0.241,0.3955,-0.0435,-0.2745,0.3185,0.26,0.272,0.1955,-0.083,0.0405,-0.1405,0.0375,0.176,-0.1095
-0.151,0.2405,0.391,-0.0445,-0.2705,0.3155,0.2555,0.272,0.196,-0.0835,0.039,-0.1415,0.0395,0.171,-0.1085
-0.1565,0.2395,0.396,-0.0415,-0.2755,0.318,0.2575,0.2715,0.196,-0.0835,0.04,-0.14,0.04,0.1695,-0.1075
-0.1565,0.2395,0.396,-0.0415,-0.2755,0.3175,0.2585,0.268,0.2005,-0.0825,0.04,-0.14,0.041,0.1735,-0.107
-0.146,0.2445,0.3905,-0.049,-0.268,0.3175,0.257,0.2765,0.2045,-0.0795,0.041,-0.1395,0.044,0.179,-0.109
-0.136,0.2505,0.3865,-0.057,-0.261,0.3185,0.2615,0.28,0.2015,-0.0795,0.044,-0.137,0.049,0.182,-0.109
-0.1345,0.251,0.3855,-0.0585,-0.2595,0.318,0.2635,0.2805,0.2035,-0.0775,0.046,-0.1355,0.052,0.182,-0.1105
-0.1375,0.249,0.387,-0.056,-0.262,0.318,0.2565,0.2845,0.2075,-0.074,0.048,-0.135,0.0535,0.18,-0.1135
-0.131,0.258,0.3885,-0.0635,-0.259,0.3235,0.2635,0.2885,0.215,-0.066,0.0555,-0.13,0.059,0.1865,-0.1155
-0.1275,0.2655,0.393,-0.069,-0.2595,0.3295,0.2695,0.2945,0.223,-0.0595,0.0625,-0.125,0.063,0.1965,-0.121
-0.127,0.2705,0.398,-0.072,-0.262,0.3345,0.276,0.299,0.228,-0.0565,0.0665,-0.1215,0.0625,0.2005,-0.127
-0.121,0.276,0.397,-0.0775,-0.259,0.3365,0.283,0.3065,0.236,-0.049,0.073,-0.1155,0.067,0.201,-0.1325
-0.1165,0.2825,0.399,-0.083,-0.257,0.3405,0.2875,0.3135,0.2445,-0.041,0.078,-0.1095,0.0765,0.2045,-0.135
-0.121,0.287,0.408,-0.083,-0.264,0.3475,0.2875,0.317,0.253,-0.035,0.0825,-0.1055,0.0815,0.2085,-0.1365
-0.1265,0.2885,0.4145,-0.081,-0.27,0.3515,0.287,0.317,0.2535,-0.032,0.085,-0.104,0.08,0.2145,-0.1365
-0.126,0.291,0.417,-0.0825,-0.271,0.354,0.2865,0.315,0.256,-0.03,0.0845,-0.103,0.08,0.219,-0.1375
-0.12,0.295,0.4155,-0.0875,-0.2675,0.3555,0.285,0.316,0.26,-0.0265,0.0885,-0.0995,0.084,0.222,-0.141
-0.1155,0.3005,0.416,-0.093,-0.265,0.358,0.2895,0.32,0.2615,-0.024,0.0935,-0.0965,0.087,0.23,-0.143
-0.11,0.3055,0.415,-0.0975,-0.262,0.36,0.2855,0.318,0.2625,-0.0225,0.094,-0.095,0.09,0.231,-0.142
-0.1065,0.3055,0.412,-0.0995,-0.259,0.3585,0.2845,0.3235,0.267,-0.0205,0.0975,-0.0915,0.0945,0.228,-0.139
-0.109,0.3015,0.41,-0.0965,-0.259,0.356,0.2835,0.3325,0.2735,-0.0165,0.0995,-0.0915,0.098,0.23,-0.136
-0.103,0.303,0.406,-0.1,-0.254,0.3545,0.2765,0.333,0.2725,-0.0145,0.101,-0.089,0.105,0.2295,-0.132
-0.0975,0.3035,0.401,-0.103,-0.249,0.3525,0.2705,0.3325,0.2745,-0.012,0.104,-0.086,0.1085,0.228,-0.13
-0.0965,0.303,0.3995,-0.1035,-0.2475,0.3515,0.272,0.333,0.279,-0.008,0.1055,-0.0855,0.108,0.2315,-0.132
-0.0955,0.303,0.3985,-0.104,-0.2465,0.351,0.269,0.336,0.2815,-0.006,0.108,-0.0835,0.112,0.232,-0.132
-0.0945,0.305,0.3995,-0.1055,-0.2465,0.352,0.2645,0.336,0.281,-0.0065,0.1065,-0.0865,0.112,0.233,-0.1315
-0.096,0.306,0.4015,-0.105,-0.2485,0.3535,0.2675,0.336,0.28,-0.0095,0.104,-0.0895,0.1095,0.2355,-0.131
-0.099,0.298,0.3975,-0.0995,-0.248,0.348,0.2665,0.334,0.2785,-0.0115,0.1015,-0.0915,0.1075,0.23,-0.129
-0.101,0.293,0.394,-0.096,-0.247,0.3435,0.2685,0.3365,0.2815,-0.011,0.0995,-0.092,0.1045,0.2235,-0.1295
-0.103,0.286,0.3895,-0.0915,-0.2455,0.3375,0.2625,0.338,0.2825,-0.009,0.0995,-0.092,0.106,0.2175,-0.1275
-0.107,0.2805,0.3875,-0.087,-0.2465,0.334,0.2575,0.3335,0.2805,-0.009,0.0985,-0.095,0.103,0.2135,-0.126
-0.1075,0.279,0.386,-0.0855,-0.2465,0.3325,0.2645,0.337,0.2825,-0.0115,0.098,-0.0955,0.101,0.211,-0.1225
-0.1055,0.279,0.384,-0.0865,-0.2445,0.3315,0.265,0.332,0.2775,-0.015,0.097,-0.095,0.103,0.2125,-0.1165
-0.106,0.2805,0.3865,-0.087,-0.246,0.3335,0.2515,0.3255,0.273,-0.0155,0.098,-0.093,0.104,0.2125,-0.1125
-0.1055,0.278,0.3835,-0.086,-0.244,0.3305,0.246,0.328,0.274,-0.0145,0.099,-0.0905,0.108,0.208,-0.109
-0.1085,0.2735,0.3815,-0.0825,-0.2445,0.3275,0.2405,0.32,0.272,-0.014,0.0985,-0.089,0.108,0.21,-0.107
-0.109,0.274,0.383,-0.0825,-0.245,0.3285,0.24,0.3295,0.274,-0.012,0.1015,-0.0885,0.1085,0.213,-0.1075
-0.1035,0.2755,0.3785,-0.086,-0.2405,0.327,0.249,0.3395,0.277,-0.011,0.1025,-0.0885,0.111,0.209,-0.1065
-0.103,0.2695,0.3725,-0.083,-0.237,0.321,0.2405,0.334,0.2715,-0.016,0.098,-0.0915,0.109,0.208,-0.0985
-0.098,0.2685,0.3665,-0.0855,-0.232,0.3175,0.233,0.331,0.2655,-0.021,0.095,-0.0935,0.1085,0.2095,-0.094
-0.092,0.2695,0.362,-0.0885,-0.2265,0.3155,0.233,0.3325,0.265,-0.021,0.097,-0.091,0.1115,0.2065,-0.0955
-0.089,0.2705,0.3595,-0.091,-0.2235,0.315,0.231,0.3345,0.266,-0.021,0.0975,-0.091,0.1105,0.2065,-0.096
-0.0915,0.271,0.3625,-0.09,-0.2265,0.317,0.229,0.3315,0.2625,-0.0205,0.0975,-0.09,0.11,0.207,-0.0905
-0.0955,0.2695,0.365,-0.087,-0.23,0.3175,0.2215,0.327,0.2585,-0.0215,0.099,-0.0885,0.1095,0.208,-0.0855
-0.094,0.265,0.359,-0.0855,-0.226,0.312,0.2125,0.3185,0.2505,-0.026,0.0965,-0.0895,0.108,0.2045,-0.079
-0.0985,0.2625,0.361,-0.082,-0.229,0.312,0.2085,0.3085,0.2415,-0.0305,0.092,-0.091,0.108,0.203,-0.074
-0.103,0.2615,0.3645,-0.0795,-0.2335,0.313,0.2035,0.292,0.2325,-0.037,0.088,-0.095,0.103,0.2035,-0.0765
-0.1055,0.2545,0.36,-0.0745,-0.2325,0.3075,0.1975,0.277,0.2235,-0.043,0.0845,-0.1,0.0995,0.197,-0.0785
-0.106,0.2555,0.3615,-0.075,-0.233,0.3085,0.196,0.2685,0.2205,-0.043,0.0825,-0.1,0.096,0.1965,-0.081
-0.108,0.2575,0.366,-0.075,-0.2365,0.312,0.202,0.264,0.2175,-0.0455,0.082,-0.099,0.0905,0.196,-0.0815
-0.118,0.252,0.3705,-0.067,-0.244,0.3115,0.2035,0.2465,0.208,-0.052,0.0785,-0.1015,0.084,0.1965,-0.078
-0.1265,0.251,0.3775,-0.0625,-0.2515,0.314,0.1965,0.2275,0.198,-0.057,0.074,-0.102,0.0805,0.1985,-0.076
-0.1245,0.256,0.381,-0.066,-0.2525,0.3185,0.1925,0.226,0.192,-0.0605,0.0715,-0.102,0.078,0.2025,-0.077
-0.1265,0.258,0.3845,-0.066,-0.255,0.3215,0.197,0.2225,0.1885,-0.0655,0.0705,-0.102,0.0755,0.204,-0.0775
-0.1305,0.259,0.389,-0.0645,-0.2595,0.3245,0.2035,0.225,0.19,-0.067,0.0725,-0.1015,0.075,0.2025,-0.0795
-0.126,0.263,0.389,-0.0685,-0.257,0.326,0.2065,0.2285,0.192,-0.0645,0.073,-0.1005,0.075,0.2035,-0.081
-0.1275,0.262,0.3895,-0.067,-0.258,0.326,0.2075,0.2285,0.1895,-0.067,0.072,-0.1005,0.071,0.205,-0.0815
-0.128,0.2635,0.3915,-0.068,-0.259,0.3275,0.211,0.2315,0.1875,-0.0695,0.0695,-0.1045,0.0675,0.212,-0.0845
-0.1275,0.262,0.3895,-0.0675,-0.258,0.326,0.214,0.2345,0.188,-0.0715,0.066,-0.109,0.0665,0.2105,-0.086
-0.126,0.26,0.386,-0.067,-0.2555,0.323,0.2145,0.236,0.1885,-0.073,0.0635,-0.1115,0.0645,0.206,-0.085
-0.124,0.26,0.3845,-0.068,-0.254,0.3225,0.2165,0.238,0.1875,-0.0725,0.0615,-0.1125,0.065,0.209,-0.0855
-0.1265,0.259,0.3855,-0.0665,-0.2555,0.3225,0.2155,0.2375,0.1835,-0.0775,0.0615,-0.113,0.065,0.2105,-0.082
-0.1275,0.255,0.3825,-0.064,-0.254,0.3185,0.2105,0.236,0.179,-0.0805,0.059,-0.114,0.0635,0.202,-0.0755
-0.1235,0.2535,0.377,-0.065,-0.2495,0.315,0.207,0.2335,0.1775,-0.08,0.058,-0.1135,0.0665,0.1995,-0.071
-0.1155,0.2565,0.372,-0.0705,-0.2435,0.3145,0.2025,0.235,0.1765,-0.08,0.061,-0.11,0.0715,0.203,-0.0655
-0.108,0.256,0.364,-0.074,-0.2355,0.31,0.199,0.2315,0.175,-0.082,0.0605,-0.111,0.072,0.2,-0.0625
-0.1075,0.255,0.3625,-0.074,-0.2345,0.3085,0.196,0.228,0.176,-0.081,0.064,-0.1105,0.0775,0.1985,-0.062
-0.1115,0.252,0.3635,-0.07,-0.237,0.3075,0.198,0.2415,0.181,-0.077,0.0675,-0.107,0.0815,0.198,-0.0645
-0.112,0.249,0.361,-0.0685,-0.236,0.3055,0.1995,0.2385,0.179,-0.0775,0.068,-0.1075,0.0795,0.194,-0.0645
-0.109,0.2535,0.362,-0.0725,-0.235,0.308,0.189,0.2325,0.1765,-0.0765,0.0705,-0.1055,0.0795,0.2005,-0.0635
-0.1075,0.258,0.3655,-0.0755,-0.236,0.312,0.1945,0.233,0.1775,-0.076,0.0715,-0.1055,0.079,0.2055,-0.064
-0.101,0.2575,0.3585,-0.0785,-0.229,0.308,0.2,0.2325,0.177,-0.077,0.0715,-0.105,0.081,0.205,-0.063
-0.094,0.2615,0.3555,-0.0835,-0.224,0.3085,0.199,0.2375,0.1795,-0.0725,0.073,-0.1005,0.0815,0.21,-0.0675
-0.101,0.2595,0.3605,-0.0795,-0.2305,0.31,0.198,0.2355,0.179,-0.0735,0.071,-0.102,0.0805,0.203,-0.069
-0.1065,0.2525,0.359,-0.073,-0.232,0.306,0.193,0.2325,0.1775,-0.075,0.0685,-0.103,0.0795,0.196,-0.067
-0.1085,0.249,0.3575,-0.07,-0.2325,0.3035,0.203,0.2355,0.181,-0.071,0.069,-0.1035,0.075,0.1925,-0.071
-0.1095,0.2475,0.357,-0.069,-0.233,0.302,0.204,0.238,0.1815,-0.0715,0.068,-0.1035,0.074,0.1865,-0.0705
-0.1045,0.251,0.3555,-0.0735,-0.2295,0.3035,0.206,0.236,0.1795,-0.0745,0.0665,-0.103,0.074,0.186,-0.0655
-0.107,0.2505,0.3575,-0.0715,-0.232,0.304,0.201,0.2315,0.175,-0.079,0.0625,-0.1085,0.0685,0.1915,-0.063
-0.108,0.251,0.359,-0.0715,-0.233,0.305,0.197,0.2315,0.173,-0.0825,0.059,-0.1115,0.0675,0.1955,-0.063
-0.1085,0.249,0.3575,-0.07,-0.2325,0.303,0.2055,0.231,0.1725,-0.0825,0.0565,-0.113,0.0675,0.1895,-0.0645
-0.114,0.241,0.3545,-0.0635,-0.2335,0.2975,0.195,0.2275,0.169,-0.0875,0.053,-0.114,0.0675,0.183,-0.0615
-0.106,0.2395,0.3455,-0.0665,-0.2255,0.2925,0.1935,0.229,0.1695,-0.0865,0.054,-0.1145,0.0685,0.18,-0.059
-0.109,0.2385,0.347,-0.0645,-0.2275,0.2925,0.1945,0.228,0.1655,-0.0885,0.0525,-0.116,0.063,0.182,-0.0625
-0.1175,0.2315,0.3495,-0.057,-0.233,0.2905,0.192,0.2215,0.158,-0.0965,0.0485,-0.119,0.059,0.184,-0.058
-0.116,0.2285,0.3445,-0.056,-0.2295,0.2865,0.1855,0.2115,0.1515,-0.1025,0.0445,-0.1235,0.06,0.18,-0.0515
-0.119,0.2275,0.3465,-0.054,-0.2325,0.287,0.185,0.2095,0.1435,-0.109,0.039,-0.126,0.058,0.1795,-0.0515
-0.1235,0.225,0.349,-0.051,-0.2355,0.287,0.193,0.2155,0.143,-0.1085,0.0405,-0.127,0.0545,0.178,-0.055
-0.1305,0.2215,0.352,-0.046,-0.2405,0.287,0.195,0.216,0.1485,-0.1045,0.0415,-0.1275,0.05,0.172,-0.0595
-0.14,0.2185,0.3585,-0.0395,-0.249,0.289,0.204,0.2195,0.147,-0.1055,0.039,-0.1305,0.045,0.1695,-0.06
-0.1465,0.217,0.3635,-0.0355,-0.2545,0.2905,0.2055,0.22,0.148,-0.107,0.037,-0.134,0.04,0.168,-0.063
-0.159,0.212,0.371,-0.0265,-0.2645,0.2915,0.212,0.218,0.149,-0.111,0.0315,-0.14,0.0305,0.166,-0.065
-0.172,0.203,0.375,-0.0155,-0.2735,0.289,0.212,0.2195,0.1425,-0.1175,0.025,-0.148,0.0205,0.154,-0.065
-0.1765,0.2025,0.3785,-0.013,-0.277,0.2905,0.2215,0.221,0.143,-0.1185,0.021,-0.1505,0.017,0.156,-0.07
-0.1735,0.2075,0.381,-0.017,-0.277,0.2945,0.227,0.2205,0.1435,-0.118,0.02,-0.152,0.017,0.1665,-0.07
-0.167,0.208,0.375,-0.0205,-0.2705,0.2915,0.2125,0.2195,0.143,-0.1185,0.019,-0.1535,0.0175,0.1605,-0.067
-0.1695,0.2085,0.378,-0.0195,-0.2735,0.2935,0.2185,0.2195,0.1445,-0.118,0.0195,-0.152,0.018,0.162,-0.0685
-0.175,0.211,0.3855,-0.018,-0.28,0.298,0.221,0.2225,0.146,-0.1185,0.0195,-0.153,0.0155,0.1675,-0.0715
-0.178,0.2095,0.3875,-0.016,-0.282,0.2985,0.222,0.2245,0.1465,-0.119,0.018,-0.1525,0.014,0.172,-0.073
-0.178,0.212,0.3895,-0.017,-0.283,0.3005,0.2205,0.224,0.1465,-0.119,0.0205,-0.15,0.0175,0.1785,-0.0715
-0.1845,0.2135,0.398,-0.0145,-0.291,0.3055,0.2195,0.2245,0.1485,-0.1175,0.022,-0.15,0.0165,0.184,-0.0745
-0.188,0.212,0.4,-0.012,-0.2935,0.306,0.2185,0.2225,0.149,-0.116,0.0225,-0.1485,0.0165,0.1825,-0.076
-0.1795,0.2135,0.3925,-0.017,-0.2855,0.303,0.217,0.2175,0.147,-0.1175,0.0235,-0.147,0.02,0.1825,-0.072
-0.1815,0.2135,0.395,-0.016,-0.288,0.304,0.2185,0.2155,0.147,-0.118,0.025,-0.146,0.02,0.1875,-0.0705
-0.183,0.2125,0.395,-0.015,-0.2885,0.304,0.217,0.2165,0.1485,-0.118,0.026,-0.1445,0.0195,0.1835,-0.069
-0.18,0.212,0.3915,-0.016,-0.2855,0.3015,0.217,0.2145,0.148,-0.118,0.0265,-0.1435,0.0185,0.178,-0.069
-0.184,0.208,0.3915,-0.012,-0.287,0.3,0.2185,0.215,0.1485,-0.1175,0.027,-0.142,0.0195,0.1745,-0.07
-0.1845,0.207,0.3915,-0.011,-0.2875,0.299,0.2185,0.213,0.147,-0.1175,0.028,-0.1415,0.021,0.1725,-0.07
-0.178,0.2095,0.387,-0.016,-0.282,0.2985,0.211,0.208,0.145,-0.116,0.03,-0.1405,0.0245,0.169,-0.0685
-0.177,0.212,0.3885,-0.0175,-0.2825,0.3,0.218,0.214,0.1475,-0.115,0.0315,-0.139,0.026,0.171,-0.0705
-0.1795,0.211,0.3905,-0.0155,-0.2845,0.301,0.221,0.214,0.148,-0.1145,0.033,-0.1405,0.023,0.1725,-0.0705
-0.1725,0.209,0.381,-0.018,-0.2765,0.295,0.211,0.212,0.147,-0.117,0.031,-0.1415,0.025,0.168,-0.068
-0.1685,0.212,0.3805,-0.0215,-0.274,0.296,0.213,0.216,0.146,-0.118,0.029,-0.143,0.025,0.1705,-0.0695
-0.179,0.2095,0.388,-0.0155,-0.283,0.299,0.212,0.2135,0.1465,-0.1165,0.03,-0.1445,0.0275,0.17,-0.0685
-0.187,0.207,0.3945,-0.01,-0.2905,0.3005,0.212,0.2105,0.1455,-0.118,0.028,-0.1445,0.024,0.169,-0.0675
-0.183,0.2135,0.3965,-0.015,-0.289,0.305,0.216,0.2155,0.1465,-0.1175,0.0275,-0.1435,0.0195,0.1705,-0.0675
-0.181,0.2145,0.395,-0.017,-0.2875,0.3045,0.2175,0.2195,0.1475,-0.116,0.026,-0.1425,0.0225,0.167,-0.064
-0.1845,0.2145,0.399,-0.015,-0.2915,0.307,0.2165,0.219,0.146,-0.1185,0.0225,-0.1445,0.0215,0.1695,-0.0615
-0.183,0.2175,0.401,-0.0175,-0.2915,0.3095,0.2125,0.2145,0.147,-0.119,0.024,-0.144,0.0235,0.1735,-0.061
-0.1795,0.2215,0.4015,-0.021,-0.29,0.3115,0.211,0.2155,0.1465,-0.1175,0.0265,-0.1435,0.0235,0.1785,-0.063
-0.1755,0.2265,0.4025,-0.0255,-0.2885,0.3145,0.212,0.217,0.148,-0.114,0.03,-0.14,0.0265,0.18,-0.0655
-0.1775,0.2235,0.4015,-0.023,-0.289,0.3125,0.2135,0.2165,0.1495,-0.1135,0.033,-0.1385,0.028,0.1785,-0.064
-0.1795,0.225,0.4045,-0.023,-0.2915,0.315,0.2145,0.2195,0.1505,-0.1115,0.035,-0.1385,0.028,0.1815,-0.0645
-0.171,0.232,0.403,-0.0305,-0.2865,0.3175,0.2135,0.219,0.153,-0.1075,0.0395,-0.134,0.0325,0.1825,-0.0645
-0.169,0.23,0.399,-0.031,-0.2835,0.3145,0.212,0.218,0.153,-0.1085,0.0415,-0.1335,0.034,0.1785,-0.063
-0.171,0.23,0.4005,-0.0295,-0.285,0.3155,0.212,0.2205,0.1515,-0.11,0.0395,-0.1335,0.034,0.1775,-0.063
-0.1715,0.231,0.4025,-0.0295,-0.2865,0.3165,0.2135,0.221,0.152,-0.112,0.037,-0.135,0.0305,0.1795,-0.065
-0.175,0.229,0.4045,-0.0275,-0.289,0.3165,0.214,0.221,0.153,-0.11,0.0355,-0.1355,0.0295,0.1795,-0.067
-0.1745,0.227,0.4015,-0.0265,-0.2875,0.3145,0.2095,0.2175,0.1515,-0.11,0.0335,-0.1375,0.027,0.185,-0.0675
-0.176,0.2265,0.403,-0.0255,-0.289,0.315,0.2115,0.217,0.151,-0.112,0.0345,-0.1385,0.0255,0.1905,-0.0685
-0.177,0.225,0.402,-0.024,-0.289,0.3135,0.214,0.219,0.154,-0.1095,0.0345,-0.137,0.0275,0.186,-0.0685
-0.1705,0.227,0.3975,-0.028,-0.2835,0.312,0.2135,0.22,0.156,-0.109,0.0345,-0.1375,0.028,0.1875,-0.0685
-0.1755,0.226,0.401,-0.0255,-0.2875,0.3135,0.2155,0.222,0.154,-0.1105,0.035,-0.138,0.026,0.1865,-0.069
-0.1815,0.222,0.404,-0.0205,-0.292,0.313,0.2105,0.218,0.1525,-0.112,0.033,-0.139,0.023,0.1815,-0.068
-0.1745,0.229,0.4035,-0.0275,-0.2885,0.3165,0.2135,0.2185,0.156,-0.1085,0.034,-0.137,0.026,0.1845,-0.0685
-0.1735,0.231,0.405,-0.029,-0.2885,0.318,0.215,0.2205,0.1565,-0.107,0.0345,-0.137,0.0235,0.184,-0.0695
-0.174,0.2305,0.4045,-0.0285,-0.2885,0.3175,0.2145,0.2235,0.1595,-0.1055,0.035,-0.1375,0.023,0.1825,-0.07
-0.176,0.2295,0.4055,-0.027,-0.29,0.3175,0.2145,0.2175,0.1575,-0.1075,0.0325,-0.139,0.0215,0.1825,-0.0695
-0.172,0.2375,0.4095,-0.0325,-0.29,0.323,0.2155,0.22,0.1565,-0.1085,0.0315,-0.139,0.021,0.192,-0.0705
-0.1645,0.2435,0.408,-0.0395,-0.2855,0.3255,0.216,0.2285,0.161,-0.1055,0.033,-0.138,0.0245,0.198,-0.071
-0.168,0.24,0.408,-0.036,-0.2875,0.324,0.2115,0.224,0.159,-0.1065,0.0305,-0.141,0.022,0.1975,-0.0725
-0.1715,0.2435,0.415,-0.036,-0.2925,0.329,0.2125,0.226,0.159,-0.1075,0.0325,-0.14,0.023,0.2015,-0.0735
-0.173,0.241,0.414,-0.034,-0.2925,0.3275,0.214,0.218,0.158,-0.108,0.0325,-0.1405,0.0235,0.195,-0.072
-0.1755,0.2345,0.41,-0.0295,-0.292,0.322,0.213,0.2185,0.1585,-0.1075,0.033,-0.1405,0.023,0.1905,-0.0705
-0.179,0.235,0.414,-0.028,-0.2965,0.3245,0.21,0.2225,0.1585,-0.105,0.0375,-0.137,0.0245,0.1955,-0.072
-0.1815,0.2345,0.416,-0.0265,-0.2985,0.3255,0.212,0.22,0.157,-0.106,0.0385,-0.1385,0.0235,0.1955,-0.0735
-0.183,0.2325,0.4155,-0.0245,-0.299,0.324,0.208,0.222,0.157,-0.107,0.0375,-0.138,0.024,0.196,-0.0745
-0.176,0.24,0.416,-0.032,-0.2955,0.328,0.207,0.2205,0.16,-0.1025,0.0405,-0.1335,0.0275,0.1965,-0.0765
-0.1805,0.2375,0.4185,-0.0285,-0.299,0.328,0.2185,0.223,0.163,-0.1005,0.043,-0.134,0.026,0.191,-0.077
-0.1805,0.235,0.4155,-0.027,-0.2975,0.3255,0.2145,0.223,0.162,-0.0985,0.044,-0.1325,0.03,0.19,-0.0765
-0.1735,0.2375,0.411,-0.032,-0.292,0.3245,0.21,0.2225,0.164,-0.0985,0.043,-0.131,0.0315,0.19,-0.075
-0.177,0.2375,0.4145,-0.03,-0.295,0.326,0.22,0.2245,0.1655,-0.0995,0.0395,-0.1325,0.027,0.19,-0.0775
-0.1705,0.2415,0.412,-0.0355,-0.2905,0.3265,0.2165,0.2255,0.167,-0.097,0.041,-0.1295,0.03,0.1925,-0.078
-0.1755,0.239,0.4145,-0.032,-0.2945,0.3265,0.2095,0.227,0.167,-0.0975,0.0415,-0.13,0.032,0.1925,-0.078
-0.18,0.2395,0.4195,-0.0295,-0.2995,0.3295,0.2115,0.2245,0.1665,-0.097,0.0425,-0.129,0.033,0.196,-0.082
-0.1805,0.236,0.4165,-0.028,-0.298,0.326,0.2095,0.2205,0.1635,-0.1005,0.0395,-0.1315,0.0295,0.1955,-0.0805
-0.1855,0.235,0.4205,-0.0245,-0.3025,0.3275,0.213,0.22,0.162,-0.1025,0.035,-0.1365,0.0245,0.19,-0.0805
-0.1875,0.2405,0.428,-0.0265,-0.3075,0.334,0.214,0.225,0.167,-0.0985,0.038,-0.134,0.025,0.1945,-0.082
-0.186,0.2455,0.432,-0.03,-0.3085,0.339,0.219,0.228,0.17,-0.0965,0.0395,-0.1325,0.0245,0.2015,-0.084
-0.183,0.2505,0.434,-0.0335,-0.308,0.3425,0.22,0.225,0.1685,-0.099,0.0355,-0.1345,0.0235,0.2065,-0.086
-0.1865,0.249,0.4355,-0.0315,-0.3105,0.3425,0.2205,0.2335,0.176,-0.0975,0.035,-0.1355,0.0205,0.205,-0.0925
-0.1865,0.2505,0.437,-0.032,-0.311,0.3435,0.237,0.2495,0.192,-0.0935,0.0345,-0.138,0.016,0.2015,-0.103
-0.1895,0.248,0.4375,-0.029,-0.313,0.3425,0.248,0.2615,0.202,-0.0935,0.0275,-0.145,0.009,0.2025,-0.109
-0.1985,0.243,0.441,-0.022,-0.319,0.3415,0.2615,0.2765,0.2145,-0.0915,0.023,-0.151,0.0015,0.2025,-0.12
-0.21,0.2415,0.451,-0.0155,-0.33,0.346,0.285,0.3005,0.233,-0.092,0.0145,-0.162,-0.0095,0.2085,-0.137
-0.218,0.247,0.465,-0.0145,-0.341,0.356,0.308,0.3305,0.2665,-0.0845,0.008,-0.1705,-0.0195,0.214,-0.16
-0.2235,0.253,0.4755,-0.015,-0.3495,0.3645,0.3305,0.3555,0.2935,-0.078,0.0045,-0.178,-0.03,0.2165,-0.184
-0.2345,0.257,0.4915,-0.011,-0.363,0.3745,0.3505,0.372,0.3095,-0.0775,-0.002,-0.187,-0.043,0.2195,-0.2065
-0.2495,0.259,0.508,-0.0045,-0.3785,0.384,0.374,0.3975,0.3345,-0.0705,-0.007,-0.1955,-0.054,0.217,-0.2275
-0.264,0.255,0.5185,0.0045,-0.391,0.387,0.4085,0.438,0.3715,-0.0625,-0.0155,-0.208,-0.067,0.215,-0.2525
-0.2665,0.254,0.52,0.006,-0.393,0.387,0.44,0.4885,0.4205,-0.05,-0.0245,-0.224,-0.0795,0.2125,-0.282
-0.2685,0.2475,0.5155,0.0105,-0.392,0.382,0.4705,0.535,0.455,-0.0435,-0.039,-0.241,-0.0925,0.206,-0.304
-0.2695,0.241,0.51,0.0145,-0.3895,0.3755,0.5025,0.5805,0.483,-0.0455,-0.0575,-0.2575,-0.107,0.198,-0.326
-0.2805,0.2275,0.5075,0.0265,-0.394,0.3675,0.537,0.635,0.507,-0.0565,-0.0805,-0.2785,-0.1255,0.186,-0.3435
-0.286,0.216,0.5015,0.035,-0.3935,0.359,0.576,0.6875,0.524,-0.073,-0.1005,-0.298,-0.14,0.174,-0.3605
-0.2815,0.212,0.4925,0.0345,-0.387,0.3525,0.595,0.728,0.547,-0.072,-0.1085,-0.306,-0.1445,0.1635,-0.3775
-0.289,0.205,0.494,0.042,-0.3915,0.35,0.6155,0.76,0.569,-0.0655,-0.1115,-0.3085,-0.1485,0.1565,-0.3915
-0.287,0.2085,0.4945,0.0395,-0.3905,0.3515,0.6615,0.8185,0.6135,-0.047,-0.1095,-0.3125,-0.1475,0.1535,-0.4185
-0.291,0.216,0.506,0.0375,-0.3985,0.361,0.6875,0.8675,0.6575,-0.023,-0.1005,-0.312,-0.14,0.16,-0.449
-0.286,0.223,0.509,0.0315,-0.3975,0.3665,0.6915,0.892,0.675,-0.0035,-0.0855,-0.3025,-0.127,0.1665,-0.467
-0.259,0.2395,0.4975,0.01,-0.378,0.3685,0.691,0.913,0.6945,0.0305,-0.058,-0.2835,-0.099,0.1695,-0.4745
-0.233,0.2625,0.495,-0.0145,-0.364,0.379,0.672,0.919,0.7135,0.0685,-0.022,-0.256,-0.0665,0.1855,-0.478
-0.2055,0.289,0.4945,-0.042,-0.3495,0.392,0.6535,0.9275,0.737,0.1125,0.0195,-0.223,-0.0285,0.2085,-0.481
-0.1725,0.3105,0.4825,-0.069,-0.327,0.397,0.6475,0.96,0.7835,0.175,0.0715,-0.184,0.02,0.221,-0.4855
-0.1225,0.331,0.453,-0.1045,-0.2875,0.392,0.6215,0.986,0.8245,0.2405,0.135,-0.134,0.085,0.2295,-0.4805
-0.0755,0.355,0.431,-0.1395,-0.2525,0.393,0.597,1.001,0.868,0.3085,0.198,-0.086,0.146,0.2435,-0.48
-0.023,0.3745,0.3975,-0.1755,-0.21,0.386,0.586,1.048,0.9385,0.3985,0.269,-0.037,0.2105,0.2535,-0.4885
0.036,0.3995,0.363,-0.2175,-0.163,0.381,0.561,1.096,1.029,0.5145,0.3545,0.021,0.289,0.267,-0.5005
0.0785,0.4205,0.342,-0.2495,-0.1315,0.3815,0.548,1.144,1.1285,0.631,0.4355,0.073,0.353,0.2805,-0.522
0.1205,0.4445,0.3235,-0.2825,-0.1015,0.384,0.529,1.167,1.218,0.7485,0.526,0.1305,0.4215,0.2935,-0.541
0.1805,0.492,0.311,-0.3365,-0.065,0.4015,0.486,1.17,1.3215,0.8895,0.6375,0.2055,0.512,0.3285,-0.562
0.2405,0.5495,0.3085,-0.3955,-0.0335,0.429,0.439,1.184,1.4375,1.0525,0.77,0.2995,0.618,0.3765,-0.589
0.285,0.6135,0.328,-0.449,-0.021,0.471,0.3905,1.1625,1.5405,1.226,0.907,0.39,0.7145,0.429,-0.632
0.334,0.704,0.37,-0.519,-0.018,0.537,0.32,1.0765,1.5525,1.363,1.044,0.49,0.812,0.503,-0.659
0.3735,0.793,0.4195,-0.5835,-0.0225,0.606,0.24,0.961,1.484,1.459,1.178,0.597,0.908,0.5745,-0.6615
0.4055,0.8745,0.4685,-0.64,-0.031,0.6715,0.1465,0.795,1.346,1.5185,1.2975,0.6945,0.991,0.6495,-0.646
0.433,0.968,0.534,-0.7005,-0.0505,0.751,0.0475,0.579,1.146,1.55,1.411,0.7935,1.0695,0.7365,-0.6205
0.46,1.051,0.5905,-0.7555,-0.065,0.8205,-0.0555,0.375,0.937,1.574,1.5265,0.8955,1.151,0.8135,-0.584
0.4855,1.126,0.64,-0.8055,-0.0775,0.883,-0.1575,0.1515,0.701,1.5725,1.636,0.996,1.227,0.8885,-0.543
0.4975,1.2055,0.7075,-0.8515,-0.105,0.9565,-0.234,-0.068,0.4745,1.575,1.741,1.0935,1.295,0.9635,-0.52
0.5095,1.2685,0.7585,-0.889,-0.1245,1.0135,-0.3255,-0.3035,0.1935,1.548,1.8305,1.185,1.3555,1.022,-0.4675
0.5175,1.3535,0.8355,-0.936,-0.1585,1.0945,-0.431,-0.559,-0.084,1.5315,1.933,1.286,1.4195,1.099,-0.4205
0.532,1.4395,0.9065,-0.9855,-0.1865,1.173,-0.5265,-0.7635,-0.3015,1.5525,2.0455,1.3865,1.4965,1.173,-0.3825
0.5325,1.47,0.937,-1.001,-0.202,1.2035,-0.58,-0.9035,-0.493,1.5585,2.1235,1.4555,1.544,1.204,-0.3395
0.508,1.4915,0.9835,-0.9995,-0.2375,1.2375,-0.572,-0.974,-0.6155,1.5435,2.1625,1.4985,1.5605,1.234,-0.3215
0.4855,1.474,0.9885,-0.98,-0.251,1.231,-0.547,-1.009,-0.704,1.489,2.1395,1.498,1.5465,1.231,-0.295
0.447,1.42,0.972,-0.9335,-0.262,1.196,-0.5075,-1.048,-0.7725,1.424,2.0785,1.4645,1.504,1.205,-0.2645
0.395,1.343,0.9475,-0.869,-0.2755,1.145,-0.451,-1.0645,-0.828,1.348,1.988,1.401,1.4315,1.161,-0.2355
0.3535,1.256,0.9015,-0.8045,-0.2735,1.0785,-0.4255,-1.0535,-0.857,1.2695,1.8755,1.315,1.3415,1.0965,-0.2035
0.3315,1.1415,0.81,-0.7365,-0.2385,0.9755,-0.386,-0.9845,-0.809,1.236,1.757,1.216,1.2575,1.0005,-0.1845
0.31,1.0095,0.699,-0.66,-0.194,0.854,-0.3435,-0.89,-0.746,1.214,1.639,1.109,1.1735,0.886,-0.1635
0.2725,0.9275,0.6545,-0.6,-0.1905,0.791,-0.318,-0.8495,-0.7585,1.1515,1.5365,1.0255,1.094,0.8245,-0.127
0.236,0.874,0.637,-0.555,-0.2,0.7555,-0.2945,-0.827,-0.802,1.0655,1.437,0.953,1.0195,0.7845,-0.084
0.203,0.843,0.6395,-0.5225,-0.218,0.741,-0.308,-0.8295,-0.877,0.9545,1.345,0.895,0.957,0.76,-0.0185
0.172,0.823,0.651,-0.4975,-0.239,0.737,-0.3335,-0.8575,-0.9815,0.8255,1.2575,0.845,0.899,0.746,0.058
0.1415,0.792,0.6505,-0.4665,-0.254,0.7215,-0.3255,-0.8495,-1.0625,0.6945,1.159,0.791,0.832,0.722,0.1225
0.0975,0.757,0.6595,-0.427,-0.2805,0.708,-0.287,-0.798,-1.1305,0.5355,1.0425,0.7235,0.75,0.6965,0.175
0.042,0.706,0.664,-0.3745,-0.3105,0.685,-0.241,-0.735,-1.196,0.3575,0.915,0.6455,0.656,0.6585,0.2295
-0.013,0.651,0.664,-0.319,-0.3385,0.6575,-0.1885,-0.698,-1.2735,0.134,0.7655,0.5595,0.5535,0.617,0.291
-0.0665,0.614,0.68,-0.274,-0.373,0.6465,-0.173,-0.687,-1.3475,-0.094,0.616,0.475,0.4495,0.592,0.3385
-0.0985,0.579,0.677,-0.2405,-0.3875,0.628,-0.183,-0.6605,-1.3965,-0.2875,0.4865,0.4045,0.3665,0.564,0.379
-0.1235,0.549,0.672,-0.213,-0.3975,0.6105,-0.179,-0.609,-1.4515,-0.5175,0.348,0.3355,0.282,0.533,0.421
-0.1615,0.505,0.6655,-0.1715,-0.4135,0.585,-0.1725,-0.5655,-1.485,-0.728,0.215,0.262,0.196,0.4905,0.456
-0.199,0.4425,0.641,-0.1215,-0.42,0.542,-0.179,-0.572,-1.485,-0.883,0.084,0.173,0.108,0.4345,0.489
-0.233,0.3945,0.627,-0.081,-0.4295,0.511,-0.193,-0.6025,-1.4445,-0.946,-0.001,0.106,0.0405,0.391,0.493
-0.2485,0.36,0.608,-0.0555,-0.428,0.4845,-0.205,-0.637,-1.3855,-0.9285,-0.0285,0.0675,0.009,0.3585,0.474
-0.249,0.3285,0.577,-0.0395,-0.413,0.453,-0.241,-0.664,-1.3345,-0.9085,-0.0565,0.0285,-0.019,0.333,0.465
-0.24,0.295,0.5345,-0.0275,-0.387,0.415,-0.3045,-0.6765,-1.2745,-0.872,-0.0715,0.001,-0.033,0.296,0.4745
-0.242,0.251,0.492,-0.0045,-0.367,0.372,-0.3245,-0.665,-1.2155,-0.8405,-0.097,-0.04,-0.056,0.2475,0.4875
-0.244,0.2145,0.458,0.0145,-0.351,0.3365,-0.315,-0.636,-1.1495,-0.819,-0.1335,-0.087,-0.09,0.211,0.4875
-0.2495,0.1925,0.442,0.0285,-0.3455,0.317,-0.3095,-0.6135,-1.0835,-0.799,-0.1575,-0.121,-0.113,0.191,0.48
-0.2605,0.165,0.4255,0.048,-0.3425,0.295,-0.2905,-0.566,-1.003,-0.7675,-0.178,-0.1555,-0.133,0.169,0.462
-0.2495,0.1505,0.4,0.0495,-0.3245,0.275,-0.276,-0.498,-0.9025,-0.7155,-0.187,-0.1805,-0.1375,0.1455,0.4385
-0.2465,0.1425,0.389,0.052,-0.3175,0.2655,-0.2535,-0.433,-0.7985,-0.655,-0.182,-0.1945,-0.1325,0.137,0.4055
-0.244,0.134,0.3775,0.055,-0.31,0.256,-0.2235,-0.373,-0.7035,-0.5925,-0.169,-0.2005,-0.123,0.129,0.3735
-0.2305,0.134,0.3645,0.0485,-0.297,0.2495,-0.189,-0.298,-0.609,-0.531,-0.1465,-0.196,-0.1045,0.1245,0.338
-0.2155,0.141,0.3565,0.0375,-0.2855,0.249,-0.154,-0.2245,-0.519,-0.4725,-0.1245,-0.1915,-0.09,0.125,0.2955
-0.21,0.1525,0.3625,0.029,-0.2855,0.2575,-0.122,-0.167,-0.4465,-0.4245,-0.107,-0.187,-0.079,0.129,0.26
-0.203,0.169,0.3725,0.017,-0.2875,0.2705,-0.087,-0.1085,-0.37,-0.378,-0.0865,-0.18,-0.0665,0.14,0.2185
-0.193,0.1855,0.3785,0.004,-0.2855,0.282,-0.0575,-0.0645,-0.3015,-0.333,-0.0655,-0.1715,-0.0535,0.1535,0.1825
-0.197,0.193,0.39,0.002,-0.293,0.2915,-0.0305,-0.0315,-0.2455,-0.296,-0.046,-0.1635,-0.042,0.1665,0.1535
-0.195,0.198,0.3935,-0.0015,-0.2935,0.2955,0.0005,0.009,-0.1895,-0.2625,-0.032,-0.159,-0.032,0.171,0.126
-0.192,0.2025,0.3945,-0.005,-0.2925,0.2985,0.039,0.0575,-0.136,-0.232,-0.0215,-0.157,-0.024,0.1735,0.1025
-0.187,0.2095,0.3965,-0.011,-0.2915,0.303,0.074,0.0965,-0.081,-0.199,-0.007,-0.152,-0.017,0.182,0.076
-0.1805,0.2205,0.401,-0.02,-0.29,0.3105,0.1035,0.1235,-0.0305,-0.1665,0.0095,-0.143,-0.0055,0.193,0.0485
-0.175,0.235,0.4105,-0.03,-0.292,0.3225,0.1285,0.146,0.023,-0.133,0.029,-0.133,0.0085,0.2015,0.0205
-0.17,0.2505,0.42,-0.0405,-0.2945,0.3355,0.142,0.157,0.067,-0.1035,0.0475,-0.1225,0.0195,0.211,-0.0045
-0.1715,0.2635,0.4355,-0.046,-0.303,0.3495,0.1475,0.157,0.1015,-0.0805,0.06,-0.112,0.0285,0.227,-0.024
-0.1685,0.2815,0.4495,-0.0565,-0.3085,0.3655,0.1525,0.1555,0.1345,-0.057,0.076,-0.1,0.038,0.2415,-0.04
-0.161,0.295,0.456,-0.067,-0.3085,0.3755,0.1565,0.1675,0.1655,-0.0365,0.0875,-0.092,0.048,0.251,-0.0515
-0.152,0.302,0.4535,-0.075,-0.3025,0.378,0.162,0.184,0.1945,-0.0205,0.0925,-0.09,0.0545,0.2545,-0.062
-0.1485,0.3025,0.4505,-0.077,-0.299,0.3765,0.1785,0.2085,0.217,-0.0095,0.0955,-0.089,0.058,0.2565,-0.072
-0.156,0.302,0.4575,-0.073,-0.3065,0.38,0.1935,0.2405,0.238,0.0005,0.096,-0.0895,0.058,0.2625,-0.0845
-0.1525,0.305,0.4565,-0.076,-0.304,0.381,0.2,0.2555,0.2545,0.0065,0.095,-0.0905,0.0585,0.2595,-0.0915
-0.1485,0.3065,0.4545,-0.079,-0.301,0.3805,0.212,0.268,0.269,0.0125,0.0945,-0.0915,0.058,0.259,-0.0985
-0.1515,0.303,0.454,-0.0755,-0.3025,0.3785,0.221,0.2795,0.2815,0.02,0.096,-0.094,0.06,0.2545,-0.1045
-0.156,0.2995,0.455,-0.0715,-0.305,0.3775,0.2235,0.2855,0.293,0.024,0.0975,-0.0965,0.0565,0.256,-0.109
-0.1585,0.297,0.455,-0.0695,-0.3065,0.3765,0.2295,0.2935,0.302,0.028,0.098,-0.098,0.0505,0.2615,-0.1165
-0.152,0.2945,0.4465,-0.0715,-0.2985,0.3705,0.2295,0.297,0.309,0.031,0.0985,-0.098,0.0595,0.2525,-0.1175
-0.152,0.296,0.448,-0.072,-0.2995,0.372,0.235,0.299,0.3165,0.0325,0.1015,-0.0975,0.0625,0.245,-0.122
-0.153,0.2975,0.45,-0.0725,-0.301,0.374,0.2395,0.303,0.3225,0.0365,0.102,-0.0975,0.062,0.245,-0.128
-0.1485,0.3,0.448,-0.076,-0.298,0.3745,0.238,0.308,0.33,0.0405,0.1045,-0.096,0.0655,0.2535,-0.13
-0.1515,0.2975,0.4485,-0.073,-0.2995,0.373,0.2415,0.311,0.3375,0.0425,0.1055,-0.096,0.0655,0.2505,-0.132
-0.1505,0.2975,0.4475,-0.074,-0.2985,0.3725,0.2445,0.3165,0.345,0.0465,0.105,-0.0965,0.068,0.245,-0.1335
-0.151,0.2995,0.4505,-0.0745,-0.3005,0.375,0.247,0.321,0.3505,0.05,0.1075,-0.0955,0.069,0.249,-0.1365
-0.1515,0.299,0.45,-0.074,-0.3,0.3745,0.247,0.321,0.356,0.0505,0.1075,-0.094,0.068,0.254,-0.1395
-0.147,0.3035,0.45,-0.078,-0.2985,0.377,0.2505,0.3275,0.363,0.0535,0.109,-0.093,0.07,0.2555,-0.1415
-0.153,0.3015,0.4535,-0.0745,-0.303,0.3775,0.2515,0.3305,0.3665,0.057,0.1095,-0.0945,0.068,0.254,-0.145
-0.154,0.299,0.4525,-0.0725,-0.303,0.376,0.253,0.3305,0.371,0.0585,0.1085,-0.0955,0.0675,0.253,-0.1465
-0.148,0.299,0.447,-0.0755,-0.297,0.373,0.253,0.3285,0.374,0.0605,0.11,-0.096,0.07,0.252,-0.1465
-0.145,0.302,0.447,-0.0785,-0.2955,0.3745,0.2525,0.3325,0.379,0.0645,0.1115,-0.095,0.0705,0.2525,-0.1495
-0.1485,0.3005,0.449,-0.076,-0.2985,0.375,0.259,0.338,0.385,0.067,0.1125,-0.0935,0.0695,0.251,-0.151
-0.156,0.293,0.449,-0.0685,-0.302,0.371,0.2615,0.337,0.3865,0.0675,0.114,-0.0955,0.0675,0.2495,-0.1525
-0.1525,0.296,0.4485,-0.072,-0.3005,0.3725,0.262,0.345,0.3935,0.073,0.118,-0.0925,0.07,0.2545,-0.156
-0.1385,0.304,0.4425,-0.083,-0.29,0.373,0.2625,0.3465,0.3995,0.078,0.122,-0.0875,0.0765,0.2585,-0.158
-0.138,0.3045,0.442,-0.083,-0.2895,0.3735,0.2655,0.348,0.405,0.0815,0.124,-0.0855,0.0785,0.2515,-0.1575
-0.1405,0.2995,0.44,-0.0795,-0.2895,0.3695,0.267,0.3515,0.4075,0.0845,0.125,-0.087,0.0765,0.2545,-0.1585
-0.144,0.295,0.4395,-0.0755,-0.2915,0.3675,0.2665,0.35,0.407,0.084,0.1235,-0.089,0.077,0.2565,-0.16
-0.14,0.3005,0.44,-0.0805,-0.2895,0.3705,0.2675,0.3515,0.412,0.0855,0.1245,-0.09,0.077,0.255,-0.1595
-0.132,0.3055,0.437,-0.087,-0.284,0.3715,0.266,0.352,0.415,0.086,0.126,-0.09,0.0805,0.257,-0.1595
-0.132,0.3065,0.4385,-0.0875,-0.2845,0.3725,0.2665,0.3555,0.4185,0.0895,0.1275,-0.088,0.084,0.261,-0.163
-0.1315,0.3095,0.441,-0.089,-0.286,0.3755,0.2655,0.3515,0.4205,0.091,0.1275,-0.089,0.08,0.2635,-0.1655
-0.1395,0.3085,0.4475,-0.0845,-0.293,0.378,0.266,0.352,0.423,0.0905,0.1255,-0.093,0.076,0.257,-0.166
-0.139,0.308,0.447,-0.0845,-0.2925,0.3775,0.269,0.359,0.4285,0.0935,0.1245,-0.095,0.0765,0.259,-0.1685
-0.1385,0.3105,0.4485,-0.086,-0.293,0.3795,0.27,0.358,0.43,0.0935,0.123,-0.0945,0.078,0.2585,-0.166
-0.141,0.309,0.4495,-0.084,-0.295,0.3795,0.2695,0.3585,0.4305,0.094,0.121,-0.0945,0.079,0.2515,-0.164
-0.138,0.311,0.448,-0.0865,-0.2925,0.3795,0.267,0.358,0.4335,0.094,0.123,-0.095,0.0805,0.2535,-0.166
-0.1365,0.314,0.45,-0.0885,-0.293,0.382,0.275,0.361,0.4385,0.0965,0.1235,-0.094,0.081,0.2555,-0.169
-0.1365,0.3085,0.445,-0.086,-0.2905,0.3765,0.27,0.356,0.4395,0.098,0.122,-0.0945,0.082,0.247,-0.1695
-0.129,0.311,0.4395,-0.091,-0.2835,0.375,0.267,0.3645,0.444,0.101,0.1255,-0.093,0.0845,0.2505,-0.1705
-0.134,0.3095,0.443,-0.0875,-0.288,0.376,0.2755,0.3725,0.4485,0.1045,0.1245,-0.0925,0.0845,0.251,-0.17
-0.149,0.299,0.448,-0.075,-0.2985,0.374,0.273,0.3655,0.449,0.1025,0.118,-0.0945,0.0805,0.2445,-0.171
-0.1445,0.3035,0.448,-0.0795,-0.296,0.376,0.274,0.3665,0.4505,0.104,0.114,-0.097,0.079,0.2485,-0.173
-0.133,0.3135,0.446,-0.09,-0.289,0.38,0.2765,0.368,0.4545,0.107,0.1155,-0.0945,0.086,0.247,-0.1705
-0.1315,0.315,0.4465,-0.0915,-0.2885,0.381,0.2735,0.3695,0.4585,0.1095,0.116,-0.0935,0.087,0.249,-0.1725
-0.1385,0.3115,0.449,-0.0865,-0.2935,0.3805,0.273,0.37,0.46,0.112,0.117,-0.096,0.0855,0.2515,-0.174
-0.134,0.3125,0.4465,-0.0895,-0.29,0.38,0.2725,0.37,0.461,0.1155,0.1205,-0.092,0.091,0.2515,-0.173
-0.1365,0.3135,0.449,-0.0885,-0.292,0.381,0.2705,0.368,0.462,0.117,0.1215,-0.0915,0.09,0.253,-0.1745
-0.139,0.315,0.454,-0.088,-0.2965,0.3845,0.2735,0.372,0.465,0.1175,0.1235,-0.093,0.087,0.258,-0.1765
-0.1355,0.316,0.451,-0.0905,-0.293,0.3835,0.271,0.3715,0.4665,0.1185,0.124,-0.095,0.087,0.259,-0.177
-0.134,0.317,0.45,-0.0915,-0.292,0.384,0.2675,0.3685,0.4675,0.118,0.123,-0.0935,0.09,0.2525,-0.1755
-0.126,0.3225,0.448,-0.0985,-0.287,0.3855,0.27,0.3735,0.471,0.1225,0.1245,-0.09,0.0955,0.261,-0.176
-0.1265,0.322,0.4485,-0.0975,-0.287,0.3855,0.275,0.3725,0.474,0.1255,0.1255,-0.09,0.0945,0.269,-0.1775
-0.134,0.3205,0.454,-0.093,-0.294,0.3875,0.2725,0.374,0.475,0.126,0.1265,-0.0905,0.093,0.2665,-0.1775
-0.138,0.3155,0.453,-0.089,-0.2955,0.385,0.2755,0.373,0.473,0.1255,0.128,-0.0915,0.094,0.262,-0.1775
-0.133,0.316,0.449,-0.0915,-0.2905,0.3825,0.2795,0.372,0.4755,0.126,0.129,-0.0905,0.0955,0.266,-0.179
-0.1275,0.3185,0.446,-0.0955,-0.2865,0.3825,0.27,0.378,0.4805,0.1295,0.1315,-0.0885,0.0985,0.272,-0.1785
-0.1295,0.3155,0.4445,-0.093,-0.2865,0.38,0.271,0.378,0.4825,0.1325,0.134,-0.0875,0.0995,0.264,-0.1795
-0.127,0.3155,0.4425,-0.0945,-0.2845,0.379,0.2725,0.3785,0.487,0.1365,0.1355,-0.0875,0.1,0.263,-0.181
-0.124,0.317,0.4415,-0.0965,-0.2825,0.3795,0.2735,0.379,0.4925,0.142,0.138,-0.0865,0.102,0.2645,-0.1845
-0.1215,0.3175,0.4395,-0.098,-0.28,0.3785,0.2775,0.383,0.498,0.1475,0.14,-0.085,0.103,0.2615,-0.1855
-0.114,0.319,0.433,-0.1025,-0.273,0.376,0.2725,0.3855,0.4995,0.149,0.1415,-0.0855,0.1025,0.2635,-0.186
-0.1155,0.32,0.435,-0.102,-0.2745,0.3775,0.276,0.386,0.503,0.1535,0.145,-0.083,0.103,0.264,-0.188
-0.1215,0.318,0.44,-0.098,-0.28,0.379,0.2815,0.3935,0.509,0.1595,0.1505,-0.0785,0.1095,0.261,-0.185
-0.123,0.3165,0.4395,-0.097,-0.281,0.378,0.272,0.3925,0.511,0.1625,0.153,-0.077,0.1125,0.2595,-0.1855
-0.123,0.3165,0.4395,-0.0965,-0.281,0.378,0.2785,0.39,0.512,0.164,0.155,-0.076,0.1115,0.257,-0.188
-0.1235,0.3135,0.437,-0.095,-0.28,0.375,0.281,0.3905,0.515,0.1655,0.157,-0.0765,0.1135,0.253,-0.1885
-0.121,0.314,0.435,-0.0965,-0.2775,0.3745,0.2785,0.398,0.522,0.1705,0.1585,-0.0765,0.113,0.254,-0.189
-0.1195,0.3175,0.4375,-0.099,-0.278,0.3775,0.283,0.4005,0.524,0.1725,0.159,-0.0765,0.111,0.2585,-0.19
-0.1235,0.314,0.4375,-0.095,-0.28,0.3755,0.2785,0.3955,0.524,0.172,0.156,-0.079,0.1105,0.26,-0.1895
-0.1205,0.315,0.436,-0.097,-0.2775,0.3755,0.28,0.3985,0.527,0.174,0.158,-0.0765,0.114,0.258,-0.1915
-0.114,0.3195,0.4335,-0.103,-0.273,0.3765,0.2755,0.3975,0.5305,0.178,0.1605,-0.0745,0.1165,0.2565,-0.194
-0.113,0.32,0.433,-0.1035,-0.2725,0.3765,0.275,0.3965,0.5335,0.181,0.1615,-0.0715,0.117,0.267,-0.195
-0.109,0.322,0.431,-0.1065,-0.2695,0.3765,0.277,0.402,0.541,0.186,0.1655,-0.0685,0.121,0.2675,-0.1965
-0.1085,0.319,0.4275,-0.105,-0.2675,0.373,0.279,0.403,0.5445,0.1895,0.167,-0.0665,0.124,0.2565,-0.195
-0.112,0.32,0.4315,-0.104,-0.271,0.376,0.284,0.4045,0.545,0.1905,0.1675,-0.0655,0.1265,0.2605,-0.195
-0.115,0.318,0.433,-0.1015,-0.2735,0.3755,0.2785,0.4075,0.547,0.191,0.1655,-0.0675,0.1255,0.259,-0.196
-0.119,0.313,0.4325,-0.0965,-0.2755,0.3725,0.2815,0.409,0.552,0.193,0.164,-0.0675,0.123,0.2635,-0.1985
-0.1135,0.316,0.4295,-0.1015,-0.271,0.373,0.285,0.413,0.5615,0.199,0.1645,-0.067,0.126,0.265,-0.1995
-0.1075,0.317,0.4245,-0.105,-0.2655,0.371,0.2825,0.4125,0.5595,0.2015,0.164,-0.066,0.129,0.255,-0.198
-0.1035,0.3195,0.423,-0.108,-0.2625,0.371,0.2805,0.413,0.561,0.2025,0.165,-0.0675,0.1295,0.2585,-0.1985
-0.112,0.3145,0.4265,-0.1015,-0.2685,0.3705,0.2825,0.4165,0.5655,0.2055,0.165,-0.068,0.1285,0.2565,-0.1985
-0.118,0.311,0.4285,-0.0965,-0.2725,0.3695,0.286,0.4195,0.5695,0.209,0.1665,-0.067,0.129,0.256,-0.2025
-0.1095,0.319,0.428,-0.1045,-0.268,0.3735,0.283,0.416,0.5765,0.2145,0.1715,-0.0655,0.1315,0.261,-0.2035
-0.1045,0.322,0.4265,-0.109,-0.265,0.3745,0.2825,0.421,0.582,0.221,0.1745,-0.065,0.1335,0.268,-0.2035
-0.106,0.321,0.427,-0.1075,-0.266,0.374,0.2815,0.4265,0.585,0.2235,0.172,-0.068,0.1325,0.2685,-0.205
-0.105,0.322,0.427,-0.109,-0.2655,0.3745,0.2815,0.425,0.589,0.227,0.175,-0.0665,0.135,0.262,-0.2055
-0.1025,0.324,0.4265,-0.1105,-0.2645,0.3755,0.286,0.4265,0.593,0.23,0.176,-0.0655,0.135,0.2685,-0.2095
-0.107,0.322,0.429,-0.1075,-0.2675,0.3755,0.289,0.427,0.5955,0.2295,0.175,-0.068,0.132,0.268,-0.21
-0.1015,0.3245,0.4265,-0.1115,-0.2635,0.3755,0.2815,0.4305,0.601,0.2335,0.1775,-0.0665,0.136,0.267,-0.2125
-0.095,0.328,0.4235,-0.1165,-0.2585,0.3755,0.279,0.4305,0.605,0.238,0.18,-0.064,0.1385,0.272,-0.2155
-0.099,0.3275,0.4265,-0.114,-0.2625,0.377,0.284,0.4325,0.6095,0.2425,0.1825,-0.0625,0.14,0.271,-0.215
-0.0995,0.3275,0.4275,-0.114,-0.263,0.3775,0.283,0.4365,0.6145,0.248,0.1865,-0.06,0.1415,0.275,-0.2175
-0.094,0.3295,0.423,-0.118,-0.2575,0.376,0.2835,0.4385,0.62,0.252,0.1915,-0.057,0.142,0.277,-0.221
-0.095,0.328,0.423,-0.1165,-0.2585,0.3755,0.2855,0.441,0.625,0.2575,0.194,-0.057,0.1435,0.2725,-0.221
-0.0965,0.325,0.4215,-0.1145,-0.2585,0.3735,0.2825,0.4415,0.629,0.2625,0.195,-0.0565,0.147,0.2655,-0.2205
-0.0955,0.3255,0.421,-0.115,-0.2575,0.3735,0.2855,0.4445,0.6345,0.265,0.1955,-0.0545,0.148,0.26,-0.2235
-0.099,0.324,0.4235,-0.1125,-0.2605,0.374,0.288,0.447,0.64,0.2685,0.1975,-0.054,0.1475,0.2605,-0.2275
-0.0965,0.324,0.4205,-0.114,-0.258,0.3725,0.2875,0.451,0.646,0.2755,0.2015,-0.0505,0.1525,0.259,-0.229
-0.095,0.3245,0.4195,-0.115,-0.2565,0.3725,0.289,0.457,0.656,0.285,0.2065,-0.0465,0.155,0.2545,-0.2295
-0.0945,0.324,0.419,-0.115,-0.256,0.3715,0.292,0.461,0.6615,0.2895,0.2075,-0.0445,0.1555,0.256,-0.2305
-0.092,0.323,0.415,-0.1155,-0.253,0.369,0.292,0.463,0.6635,0.2915,0.2065,-0.0435,0.1565,0.258,-0.2305
-0.093,0.321,0.4145,-0.114,-0.253,0.3675,0.288,0.464,0.669,0.2965,0.208,-0.042,0.16,0.2575,-0.2285
-0.085,0.3265,0.4115,-0.121,-0.248,0.369,0.2905,0.468,0.6775,0.3035,0.2125,-0.039,0.166,0.2595,-0.2265
-0.079,0.332,0.411,-0.1265,-0.2445,0.3715,0.2875,0.469,0.681,0.3075,0.216,-0.0365,0.169,0.268,-0.228
-0.086,0.331,0.417,-0.1225,-0.251,0.374,0.288,0.473,0.687,0.3145,0.22,-0.036,0.1675,0.2755,-0.233
-0.089,0.3285,0.4175,-0.12,-0.253,0.373,0.291,0.4775,0.6925,0.32,0.221,-0.0355,0.167,0.277,-0.2365
-0.082,0.3325,0.414,-0.125,-0.2475,0.3735,0.29,0.479,0.6965,0.3225,0.222,-0.034,0.17,0.2795,-0.238
-0.076,0.3365,0.4125,-0.13,-0.2435,0.3745,0.291,0.4795,0.704,0.3265,0.223,-0.033,0.1725,0.2785,-0.237
-0.0755,0.333,0.4085,-0.1285,-0.2415,0.371,0.2895,0.483,0.7085,0.3305,0.223,-0.0335,0.177,0.272,-0.2375
-0.0705,0.3385,0.4085,-0.134,-0.239,0.3735,0.2925,0.4925,0.7165,0.338,0.228,-0.0285,0.1805,0.2735,-0.242
-0.068,0.345,0.413,-0.1385,-0.24,0.379,0.2925,0.494,0.7245,0.344,0.23,-0.0285,0.181,0.27,-0.2435
-0.071,0.3435,0.414,-0.136,-0.242,0.3785,0.2935,0.4965,0.7315,0.3495,0.233,-0.029,0.1825,0.266,-0.2405
-0.0675,0.3465,0.4145,-0.1395,-0.2405,0.3805,0.2965,0.505,0.739,0.3555,0.236,-0.0265,0.184,0.274,-0.2435
-0.0695,0.3455,0.4145,-0.138,-0.2415,0.38,0.2925,0.5035,0.7425,0.359,0.2365,-0.029,0.1835,0.275,-0.247
-0.072,0.345,0.4165,-0.1365,-0.2435,0.3805,0.294,0.506,0.7495,0.3645,0.241,-0.0275,0.1865,0.2805,-0.2495
-0.069,0.3475,0.416,-0.1395,-0.242,0.382,0.296,0.5155,0.759,0.374,0.2475,-0.023,0.1925,0.2895,-0.2515
-0.068,0.3465,0.414,-0.139,-0.2405,0.38,0.2945,0.516,0.7665,0.3815,0.2515,-0.019,0.197,0.2855,-0.25
-0.063,0.3465,0.41,-0.142,-0.236,0.378,0.2905,0.5175,0.776,0.3905,0.2545,-0.0175,0.1985,0.283,-0.252
-0.0575,0.348,0.406,-0.1455,-0.231,0.377,0.2935,0.525,0.784,0.397,0.257,-0.017,0.1995,0.2865,-0.2525
-0.0565,0.352,0.4085,-0.1475,-0.232,0.38,0.2965,0.5325,0.7905,0.404,0.2625,-0.0155,0.202,0.2875,-0.252
-0.0565,0.3505,0.4075,-0.147,-0.2315,0.379,0.299,0.536,0.798,0.411,0.2645,-0.0155,0.2035,0.285,-0.2535
-0.059,0.349,0.408,-0.145,-0.233,0.378,0.306,0.5385,0.805,0.414,0.2625,-0.016,0.2035,0.2835,-0.2575
-0.0555,0.351,0.4065,-0.1475,-0.231,0.3785,0.2995,0.5435,0.8115,0.419,0.264,-0.0145,0.206,0.2825,-0.2585
-0.0515,0.3525,0.4045,-0.1505,-0.2275,0.3785,0.2965,0.5495,0.8205,0.4275,0.267,-0.012,0.2095,0.2855,-0.26
-0.0455,0.3575,0.403,-0.156,-0.2235,0.3805,0.294,0.5555,0.831,0.438,0.2715,-0.0095,0.2165,0.288,-0.262
-0.034,0.3615,0.396,-0.1635,-0.2145,0.3785,0.2945,0.5555,0.8395,0.4475,0.276,-0.0075,0.223,0.2855,-0.2625
-0.036,0.3625,0.3985,-0.163,-0.2165,0.3805,0.297,0.558,0.847,0.4545,0.2795,-0.007,0.225,0.283,-0.265
-0.0345,0.3665,0.401,-0.166,-0.217,0.3835,0.2975,0.5675,0.856,0.461,0.285,-0.004,0.23,0.289,-0.2665
-0.03,0.369,0.399,-0.1695,-0.2135,0.3835,0.299,0.5735,0.867,0.47,0.2885,-0.002,0.2305,0.293,-0.269
-0.0385,0.3655,0.4045,-0.1635,-0.221,0.385,0.298,0.5765,0.8755,0.479,0.2915,-0.0005,0.2305,0.294,-0.274
-0.0425,0.3675,0.41,-0.1625,-0.2255,0.389,0.2965,0.5785,0.8825,0.4875,0.296,0.002,0.236,0.2965,-0.2765
-0.0315,0.3745,0.406,-0.1715,-0.2185,0.3905,0.2995,0.585,0.8935,0.4975,0.3025,0.0055,0.2415,0.2955,-0.2755
-0.0225,0.379,0.4015,-0.178,-0.2115,0.39,0.301,0.593,0.9035,0.506,0.307,0.0105,0.2465,0.2995,-0.2755
-0.0245,0.3785,0.4025,-0.177,-0.213,0.3905,0.2975,0.5955,0.912,0.514,0.311,0.013,0.2485,0.3025,-0.2785
-0.0265,0.3785,0.4045,-0.176,-0.2155,0.3915,0.301,0.602,0.921,0.5215,0.313,0.0145,0.25,0.306,-0.2815
-0.025,0.378,0.4025,-0.1765,-0.2135,0.39,0.3015,0.6085,0.929,0.5295,0.316,0.016,0.2515,0.3095,-0.285
-0.017,0.383,0.4,-0.183,-0.208,0.3915,0.3025,0.6135,0.9395,0.54,0.32,0.0205,0.258,0.313,-0.2875
-0.0105,0.3855,0.396,-0.1875,-0.203,0.391,0.302,0.6185,0.948,0.549,0.3235,0.025,0.263,0.3145,-0.2895
-0.0075,0.3845,0.392,-0.1885,-0.1995,0.3885,0.3005,0.6215,0.955,0.5585,0.3285,0.0275,0.264,0.308,-0.2915
-0.007,0.3845,0.391,-0.189,-0.1985,0.388,0.304,0.6305,0.965,0.567,0.33,0.029,0.267,0.3115,-0.2925
-0.005,0.3845,0.3895,-0.19,-0.1965,0.387,0.302,0.6365,0.9745,0.5775,0.332,0.031,0.2685,0.3135,-0.295
0.001,0.39,0.3895,-0.1955,-0.1935,0.39,0.3035,0.6405,0.9835,0.587,0.3395,0.0345,0.274,0.3115,-0.297
0.001,0.39,0.389,-0.1955,-0.1935,0.3895,0.301,0.643,0.9885,0.5925,0.3435,0.0345,0.2775,0.3115,-0.299
0.001,0.3915,0.3905,-0.1965,-0.194,0.391,0.3005,0.647,0.9955,0.6025,0.349,0.037,0.2775,0.315,-0.303
0.0055,0.392,0.3865,-0.1985,-0.1905,0.3895,0.303,0.6545,1.0065,0.613,0.357,0.0415,0.2845,0.311,-0.305
0.015,0.397,0.382,-0.206,-0.183,0.3895,0.3,0.66,1.0175,0.626,0.365,0.0475,0.2935,0.3145,-0.3075
0.0185,0.403,0.3845,-0.211,-0.1825,0.394,0.303,0.665,1.0245,0.637,0.372,0.0535,0.298,0.3245,-0.3095
0.016,0.402,0.386,-0.209,-0.1845,0.394,0.3005,0.662,1.0285,0.6415,0.377,0.054,0.301,0.327,-0.3105
0.017,0.406,0.389,-0.2115,-0.1855,0.3975,0.2995,0.67,1.037,0.6495,0.382,0.056,0.3055,0.331,-0.313
0.015,0.402,0.3875,-0.2085,-0.1855,0.3945,0.2975,0.6725,1.044,0.6575,0.386,0.0615,0.3095,0.324,-0.315
0.0095,0.4,0.39,-0.2045,-0.19,0.395,0.296,0.673,1.0505,0.6655,0.3885,0.0635,0.309,0.33,-0.318
0.016,0.4065,0.39,-0.2115,-0.1865,0.398,0.3045,0.688,1.0605,0.6745,0.394,0.0665,0.3145,0.3325,-0.318
0.0285,0.4115,0.383,-0.22,-0.177,0.397,0.299,0.691,1.066,0.683,0.4,0.0705,0.322,0.3305,-0.3185
0.0305,0.4145,0.3835,-0.2225,-0.176,0.3985,0.2945,0.688,1.07,0.69,0.4055,0.075,0.3255,0.3325,-0.319
0.032,0.416,0.3835,-0.224,-0.175,0.4,0.2935,0.6895,1.075,0.696,0.4125,0.0785,0.33,0.333,-0.3195
0.033,0.4195,0.387,-0.2265,-0.1765,0.4035,0.2935,0.696,1.0825,0.7045,0.42,0.0835,0.3345,0.3355,-0.32
0.034,0.418,0.384,-0.226,-0.1745,0.401,0.2905,0.694,1.0865,0.713,0.4275,0.0885,0.3405,0.328,-0.3215
0.0315,0.413,0.3815,-0.222,-0.1745,0.397,0.2865,0.6975,1.09,0.7205,0.431,0.0885,0.341,0.3295,-0.3245
0.0375,0.4185,0.3805,-0.228,-0.171,0.3995,0.296,0.709,1.1005,0.733,0.438,0.094,0.346,0.326,-0.3265
0.051,0.427,0.3765,-0.239,-0.1625,0.402,0.297,0.71,1.1125,0.7465,0.448,0.103,0.355,0.3215,-0.3275
0.057,0.427,0.3705,-0.242,-0.156,0.399,0.29,0.7135,1.115,0.752,0.454,0.108,0.362,0.3275,-0.3255
0.0585,0.427,0.3685,-0.2425,-0.1545,0.3975,0.2895,0.712,1.111,0.755,0.4555,0.11,0.365,0.332,-0.3245
0.057,0.4265,0.37,-0.242,-0.156,0.3985,0.2855,0.7095,1.1145,0.7615,0.4575,0.113,0.366,0.333,-0.326
0.06,0.43,0.37,-0.245,-0.1545,0.4,0.281,0.7165,1.1185,0.768,0.465,0.117,0.371,0.3335,-0.3255
0.0585,0.43,0.3715,-0.2445,-0.1555,0.4005,0.286,0.72,1.1225,0.775,0.4705,0.121,0.3755,0.3375,-0.3265
0.057,0.4285,0.3715,-0.2425,-0.157,0.4,0.289,0.7205,1.1275,0.7815,0.4745,0.125,0.379,0.336,-0.3265
0.0675,0.437,0.3695,-0.252,-0.1505,0.403,0.2805,0.7195,1.13,0.7855,0.479,0.1275,0.3805,0.339,-0.327
0.073,0.441,0.368,-0.257,-0.147,0.4045,0.2745,0.718,1.135,0.7905,0.481,0.13,0.385,0.3435,-0.3265
0.0725,0.4425,0.37,-0.2575,-0.148,0.406,0.2825,0.72,1.131,0.7915,0.485,0.1325,0.3915,0.3465,-0.326
0.0745,0.441,0.3665,-0.258,-0.1455,0.4035,0.275,0.717,1.13,0.7945,0.489,0.135,0.397,0.346,-0.3265
0.074,0.441,0.3675,-0.2575,-0.1465,0.404,0.264,0.7135,1.1295,0.8,0.492,0.1355,0.399,0.3475,-0.3255
0.0775,0.447,0.3695,-0.262,-0.1455,0.408,0.268,0.714,1.1305,0.8025,0.4955,0.1345,0.397,0.349,-0.326
0.0765,0.4455,0.369,-0.261,-0.146,0.4075,0.268,0.717,1.133,0.807,0.499,0.137,0.398,0.344,-0.3255
0.0745,0.4435,0.369,-0.259,-0.1465,0.406,0.267,0.7145,1.131,0.81,0.503,0.141,0.4025,0.3505,-0.3235
0.0775,0.4445,0.367,-0.261,-0.144,0.4055,0.2595,0.7055,1.1285,0.809,0.502,0.142,0.4045,0.356,-0.323
0.0815,0.449,0.3675,-0.265,-0.143,0.4085,0.2615,0.7125,1.131,0.8135,0.506,0.1465,0.4075,0.362,-0.323
0.086,0.4545,0.369,-0.2705,-0.141,0.4115,0.263,0.717,1.1345,0.818,0.5125,0.155,0.413,0.3625,-0.3215
0.0835,0.452,0.3685,-0.2675,-0.142,0.41,0.257,0.7105,1.1305,0.8195,0.514,0.158,0.4155,0.357,-0.3175
0.087,0.452,0.365,-0.2695,-0.1385,0.4085,0.2615,0.716,1.1315,0.8255,0.517,0.161,0.419,0.3595,-0.317
0.093,0.4555,0.3625,-0.274,-0.134,0.409,0.257,0.7145,1.1315,0.826,0.518,0.1625,0.42,0.3635,-0.3165
0.0905,0.4535,0.363,-0.272,-0.1355,0.408,0.254,0.713,1.1315,0.828,0.523,0.168,0.4215,0.3645,-0.3145
0.095,0.459,0.364,-0.277,-0.134,0.4115,0.2535,0.711,1.1295,0.831,0.5265,0.171,0.424,0.363,-0.314
0.095,0.46,0.3655,-0.2775,-0.135,0.413,0.2495,0.7055,1.1255,0.83,0.528,0.171,0.4265,0.363,-0.312
0.091,0.4595,0.369,-0.275,-0.1385,0.4145,0.249,0.707,1.126,0.832,0.532,0.1725,0.427,0.3615,-0.312
0.09,0.4635,0.3735,-0.277,-0.1415,0.419,0.249,0.7065,1.125,0.835,0.5355,0.1745,0.4265,0.364,-0.3145
0.087,0.458,0.371,-0.2725,-0.1415,0.4145,0.248,0.703,1.123,0.837,0.539,0.176,0.427,0.364,-0.311
0.09,0.46,0.37,-0.275,-0.1395,0.415,0.246,0.7025,1.119,0.835,0.5375,0.1735,0.4255,0.364,-0.3095
0.093,0.465,0.372,-0.279,-0.139,0.4185,0.2435,0.7015,1.116,0.834,0.538,0.1745,0.4265,0.369,-0.3095
0.0985,0.464,0.3655,-0.2815,-0.133,0.415,0.2335,0.694,1.112,0.831,0.5395,0.175,0.4305,0.374,-0.3055
0.1035,0.4675,0.364,-0.2855,-0.13,0.4155,0.2335,0.6925,1.1095,0.831,0.542,0.179,0.433,0.3785,-0.306
0.102,0.469,0.3675,-0.2855,-0.132,0.418,0.238,0.6915,1.1085,0.8325,0.545,0.1835,0.435,0.3835,-0.305
0.0925,0.4665,0.374,-0.2795,-0.14,0.42,0.231,0.685,1.1025,0.8295,0.5445,0.1835,0.4345,0.3845,-0.3035
0.085,0.4655,0.3805,-0.2755,-0.147,0.423,0.233,0.684,1.0985,0.8285,0.544,0.1855,0.4315,0.3815,-0.304
0.0985,0.4705,0.372,-0.2845,-0.1365,0.421,0.23,0.6815,1.0935,0.8255,0.541,0.186,0.436,0.3815,-0.3005
0.1005,0.4715,0.371,-0.286,-0.1345,0.421,0.2265,0.6765,1.0865,0.821,0.5395,0.1855,0.4375,0.3805,-0.298
0.094,0.472,0.378,-0.283,-0.1415,0.425,0.2265,0.6715,1.0825,0.818,0.54,0.188,0.4375,0.384,-0.2975
0.092,0.4705,0.3785,-0.2815,-0.1425,0.4245,0.2235,0.667,1.0755,0.8165,0.541,0.19,0.44,0.379,-0.297
0.0935,0.474,0.38,-0.284,-0.143,0.427,0.2245,0.665,1.0705,0.817,0.5425,0.1925,0.4405,0.376,-0.297
0.0995,0.4785,0.379,-0.289,-0.1395,0.4285,0.2215,0.663,1.067,0.813,0.543,0.1945,0.4435,0.378,-0.2965
0.0975,0.478,0.38,-0.2875,-0.1405,0.429,0.222,0.6565,1.059,0.809,0.5415,0.193,0.44,0.375,-0.297
0.109,0.485,0.376,-0.297,-0.133,0.4305,0.216,0.6515,1.0505,0.805,0.5405,0.1945,0.441,0.3755,-0.2945
0.1075,0.478,0.3705,-0.293,-0.131,0.424,0.219,0.652,1.046,0.8015,0.5425,0.198,0.4405,0.3715,-0.293
0.0975,0.471,0.3735,-0.2845,-0.1375,0.4225,0.2145,0.6425,1.038,0.7965,0.5415,0.195,0.434,0.3725,-0.293
0.095,0.477,0.382,-0.286,-0.143,0.4295,0.2155,0.6375,1.0265,0.7885,0.5375,0.191,0.43,0.3815,-0.292
0.0925,0.4755,0.3825,-0.284,-0.1445,0.429,0.2215,0.6335,1.018,0.7815,0.5355,0.19,0.4295,0.381,-0.287
0.0905,0.472,0.381,-0.281,-0.1445,0.4265,0.2105,0.627,1.008,0.775,0.5325,0.19,0.428,0.374,-0.2825
0.081,0.473,0.392,-0.277,-0.155,0.4325,0.2195,0.6255,0.999,0.765,0.527,0.1865,0.4195,0.3785,-0.281
0.082,0.4745,0.393,-0.2785,-0.155,0.4335,0.213,0.617,0.9875,0.754,0.5215,0.186,0.418,0.3895,-0.276
0.077,0.4735,0.3965,-0.275,-0.1595,0.435,0.209,0.6125,0.9765,0.745,0.5165,0.1845,0.4165,0.3865,-0.2735
0.079,0.476,0.397,-0.2775,-0.1585,0.436,0.212,0.6065,0.9665,0.736,0.5135,0.184,0.4155,0.3825,-0.2735
0.0855,0.4765,0.391,-0.2805,-0.152,0.4335,0.208,0.6005,0.955,0.726,0.5105,0.1855,0.414,0.384,-0.272
0.0715,0.4695,0.3975,-0.2705,-0.1625,0.4335,0.213,0.5985,0.9425,0.715,0.506,0.181,0.4045,0.378,-0.2705
0.0575,0.4595,0.402,-0.2585,-0.172,0.431,0.2135,0.59,0.928,0.702,0.501,0.179,0.399,0.373,-0.2665
0.0575,0.458,0.401,-0.258,-0.1715,0.4295,0.21,0.5825,0.913,0.69,0.497,0.177,0.399,0.372,-0.2595
0.0625,0.4615,0.399,-0.262,-0.1675,0.43,0.2065,0.5765,0.8995,0.678,0.4945,0.1745,0.398,0.371,-0.254
0.065,0.463,0.3985,-0.264,-0.166,0.431,0.209,0.572,0.889,0.666,0.491,0.173,0.395,0.3715,-0.2535
0.0625,0.4625,0.4,-0.2625,-0.1685,0.4315,0.211,0.5635,0.8725,0.6505,0.4845,0.1675,0.389,0.3725,-0.251
0.0525,0.457,0.4045,-0.255,-0.1755,0.431,0.211,0.5555,0.856,0.6345,0.4765,0.163,0.3805,0.367,-0.2485
0.0415,0.45,0.409,-0.2455,-0.1835,0.4295,0.212,0.5495,0.84,0.617,0.467,0.1575,0.374,0.361,-0.247
0.0345,0.443,0.4075,-0.2385,-0.186,0.425,0.2095,0.5385,0.8215,0.6,0.457,0.1505,0.3675,0.3585,-0.2445
0.0375,0.442,0.404,-0.24,-0.1825,0.423,0.204,0.53,0.8075,0.5855,0.45,0.145,0.363,0.3505,-0.24
0.0355,0.4425,0.4065,-0.239,-0.185,0.4245,0.213,0.529,0.7925,0.571,0.444,0.141,0.3585,0.3525,-0.2375
0.03,0.437,0.407,-0.2335,-0.188,0.422,0.2195,0.5265,0.7775,0.5555,0.4355,0.136,0.3485,0.356,-0.235
0.0265,0.434,0.4075,-0.23,-0.19,0.421,0.2135,0.517,0.7615,0.5395,0.4255,0.1275,0.34,0.3525,-0.231
0.0215,0.432,0.41,-0.2265,-0.1935,0.421,0.217,0.5115,0.746,0.5255,0.4175,0.121,0.334,0.3465,-0.23
0.0255,0.4335,0.408,-0.2295,-0.191,0.4205,0.2175,0.5065,0.7335,0.513,0.4095,0.1185,0.3295,0.3435,-0.2255
0.022,0.4335,0.4115,-0.2275,-0.1945,0.4225,0.2175,0.4995,0.7185,0.498,0.3995,0.1125,0.3245,0.3485,-0.2215
0.0125,0.4275,0.415,-0.22,-0.2005,0.4215,0.217,0.4905,0.7025,0.479,0.387,0.103,0.3135,0.3455,-0.2205
0.0055,0.4225,0.4175,-0.214,-0.2055,0.42,0.218,0.483,0.686,0.461,0.3745,0.097,0.304,0.3345,-0.218
-0.009,0.4135,0.4225,-0.2025,-0.215,0.418,0.2225,0.481,0.672,0.4475,0.3665,0.091,0.296,0.3345,-0.218
-0.019,0.4065,0.4255,-0.1935,-0.222,0.416,0.218,0.47,0.6545,0.43,0.3575,0.0845,0.2875,0.336,-0.214
-0.027,0.4,0.427,-0.1865,-0.2265,0.4135,0.222,0.4615,0.6375,0.411,0.3475,0.077,0.281,0.332,-0.207
-0.029,0.398,0.427,-0.1845,-0.2275,0.4125,0.2165,0.4565,0.626,0.3975,0.3405,0.0715,0.2735,0.3245,-0.2055
-0.0235,0.3995,0.423,-0.188,-0.2225,0.411,0.214,0.449,0.612,0.385,0.3335,0.067,0.267,0.3245,-0.204
-0.0245,0.3975,0.422,-0.1865,-0.2225,0.41,0.2285,0.4475,0.599,0.37,0.3255,0.06,0.2605,0.3285,-0.2005
-0.031,0.3925,0.424,-0.1805,-0.227,0.408,0.2285,0.4445,0.588,0.356,0.3175,0.055,0.2535,0.3175,-0.198
-0.038,0.384,0.422,-0.173,-0.2295,0.403,0.2235,0.434,0.572,0.342,0.3095,0.05,0.248,0.31,-0.1935
-0.04,0.378,0.418,-0.169,-0.2285,0.398,0.224,0.425,0.558,0.3275,0.3025,0.046,0.245,0.3105,-0.1885
-0.0435,0.373,0.4165,-0.1645,-0.2295,0.3945,0.2255,0.4235,0.547,0.3155,0.2945,0.0425,0.24,0.303,-0.185
-0.0495,0.37,0.4195,-0.1605,-0.234,0.395,0.225,0.417,0.536,0.301,0.287,0.036,0.2295,0.297,-0.1805
-0.056,0.365,0.4205,-0.1545,-0.2375,0.3925,0.227,0.414,0.5255,0.289,0.2805,0.0325,0.223,0.2895,-0.178
-0.06,0.359,0.419,-0.1495,-0.239,0.389,0.23,0.4125,0.513,0.2775,0.2725,0.028,0.2205,0.285,-0.1745
-0.06,0.359,0.4195,-0.1495,-0.239,0.389,0.2355,0.4085,0.504,0.266,0.266,0.024,0.2155,0.2915,-0.174
-0.065,0.355,0.4195,-0.145,-0.2415,0.3875,0.2335,0.402,0.4905,0.254,0.2595,0.019,0.2085,0.29,-0.174
-0.0625,0.351,0.4135,-0.1445,-0.2375,0.3825,0.23,0.395,0.4785,0.2405,0.251,0.0145,0.2045,0.28,-0.169
-0.0635,0.3485,0.412,-0.1425,-0.237,0.38,0.236,0.3915,0.4685,0.2315,0.2465,0.012,0.2,0.276,-0.167
-0.0715,0.344,0.4155,-0.136,-0.243,0.3795,0.2375,0.3885,0.4575,0.2195,0.2385,0.0065,0.192,0.2775,-0.163
-0.0825,0.3405,0.423,-0.129,-0.2525,0.382,0.2385,0.3825,0.448,0.206,0.228,0.0015,0.1855,0.2765,-0.159
-0.086,0.3395,0.426,-0.1265,-0.2555,0.3825,0.236,0.3765,0.437,0.1955,0.2235,-0.004,0.182,0.277,-0.1565
-0.082,0.3375,0.4195,-0.1275,-0.2505,0.3785,0.237,0.3735,0.4295,0.1875,0.219,-0.006,0.1785,0.274,-0.156
-0.0915,0.328,0.4195,-0.1185,-0.255,0.374,0.244,0.3685,0.42,0.177,0.211,-0.012,0.17,0.27,-0.1565
-0.089,0.323,0.412,-0.117,-0.2495,0.3675,0.234,0.3655,0.4105,0.1665,0.201,-0.0205,0.165,0.263,-0.1505
-0.084,0.3265,0.4105,-0.121,-0.247,0.3685,0.233,0.3645,0.4035,0.157,0.1965,-0.0215,0.1625,0.2575,-0.1475
-0.0845,0.3245,0.409,-0.12,-0.2465,0.3665,0.2395,0.3615,0.3965,0.1485,0.191,-0.0245,0.1585,0.2625,-0.147
-0.0895,0.321,0.4105,-0.116,-0.2495,0.366,0.237,0.3555,0.3855,0.137,0.184,-0.0285,0.155,0.265,-0.1435
-0.0955,0.319,0.4145,-0.112,-0.254,0.367,0.24,0.351,0.378,0.127,0.181,-0.032,0.1505,0.262,-0.1425
-0.0925,0.316,0.4085,-0.112,-0.25,0.3625,0.2425,0.3525,0.3785,0.1235,0.178,-0.034,0.1485,0.2565,-0.1425
-0.0965,0.312,0.4085,-0.108,-0.252,0.36,0.242,0.3505,0.369,0.117,0.173,-0.038,0.1435,0.252,-0.14
-0.102,0.3075,0.4095,-0.1025,-0.2555,0.3585,0.242,0.3455,0.359,0.11,0.168,-0.042,0.1395,0.249,-0.1395
-0.105,0.3085,0.4135,-0.1015,-0.259,0.361,0.241,0.342,0.3535,0.104,0.1665,-0.043,0.1385,0.247,-0.137
-0.108,0.303,0.411,-0.0975,-0.259,0.357,0.2425,0.3405,0.348,0.0965,0.1615,-0.049,0.131,0.2435,-0.135
-0.1125,0.2985,0.411,-0.093,-0.261,0.3545,0.245,0.34,0.3445,0.0915,0.1555,-0.052,0.128,0.2425,-0.1335
-0.114,0.298,0.412,-0.092,-0.2625,0.355,0.246,0.3385,0.34,0.0865,0.1515,-0.0545,0.126,0.242,-0.131
-0.1165,0.293,0.4095,-0.0885,-0.262,0.351,0.245,0.3345,0.336,0.0805,0.149,-0.058,0.121,0.238,-0.133
-0.1135,0.293,0.4065,-0.09,-0.2595,0.35,0.244,0.334,0.332,0.0795,0.15,-0.0555,0.123,0.2335,-0.1315
-0.1115,0.2945,0.4055,-0.0915,-0.258,0.35,0.2465,0.333,0.33,0.077,0.1515,-0.055,0.1215,0.2335,-0.1305
-0.1215,0.287,0.4085,-0.0825,-0.2645,0.3475,0.2465,0.328,0.3255,0.07,0.1485,-0.0585,0.1185,0.2325,-0.129
-0.122,0.2855,0.408,-0.0815,-0.2645,0.347,0.2455,0.3305,0.32,0.0655,0.147,-0.0615,0.1165,0.23,-0.1285
-0.1195,0.2885,0.408,-0.0845,-0.2635,0.348,0.247,0.3295,0.3175,0.063,0.147,-0.0595,0.1195,0.2275,-0.127
-0.13,0.2835,0.414,-0.077,-0.2715,0.349,0.2475,0.325,0.3125,0.0605,0.1455,-0.0605,0.117,0.2275,-0.1275
-0.132,0.284,0.4155,-0.076,-0.2735,0.35,0.2445,0.3235,0.3115,0.0575,0.144,-0.063,0.1155,0.227,-0.128
-0.126,0.284,0.41,-0.079,-0.2675,0.347,0.243,0.322,0.31,0.054,0.1435,-0.062,0.119,0.2225,-0.1245
-0.1285,0.2815,0.4105,-0.0765,-0.269,0.346,0.246,0.318,0.302,0.0505,0.142,-0.064,0.1135,0.226,-0.125
-0.1305,0.279,0.409,-0.074,-0.269,0.3435,0.2475,0.3185,0.3,0.0485,0.141,-0.063,0.1145,0.226,-0.1225
-0.1265,0.2815,0.4085,-0.077,-0.267,0.345,0.245,0.3175,0.2975,0.045,0.1395,-0.0635,0.115,0.2295,-0.1215
-0.1255,0.283,0.4085,-0.0785,-0.2665,0.346,0.2445,0.315,0.294,0.0405,0.1335,-0.067,0.111,0.2315,-0.12
-0.1225,0.28,0.403,-0.0785,-0.2625,0.3415,0.2455,0.316,0.2935,0.039,0.132,-0.068,0.1105,0.2275,-0.1195
-0.122,0.2815,0.4035,-0.0795,-0.2625,0.3425,0.245,0.3155,0.292,0.0385,0.132,-0.0685,0.11,0.2255,-0.118
-0.1225,0.2795,0.4025,-0.0785,-0.262,0.341,0.2455,0.3155,0.2915,0.039,0.1325,-0.0675,0.109,0.2215,-0.1185
-0.12,0.278,0.3985,-0.079,-0.2585,0.338,0.2475,0.315,0.2895,0.036,0.131,-0.069,0.1065,0.221,-0.117
-0.1225,0.2765,0.399,-0.077,-0.2605,0.338,0.249,0.3165,0.287,0.0335,0.1295,-0.068,0.105,0.2195,-0.1175
-0.12,0.2775,0.3975,-0.0785,-0.2585,0.3375,0.248,0.313,0.286,0.033,0.1285,-0.069,0.1035,0.221,-0.1185
-0.1265,0.274,0.4005,-0.074,-0.263,0.337,0.2465,0.31,0.283,0.0295,0.125,-0.0745,0.1025,0.222,-0.115
-0.1295,0.272,0.4015,-0.071,-0.265,0.3365,0.2455,0.31,0.281,0.029,0.1235,-0.0745,0.1035,0.2195,-0.116
-0.1265,0.273,0.3995,-0.073,-0.2625,0.336,0.246,0.309,0.2805,0.0265,0.122,-0.075,0.102,0.2205,-0.114
-0.124,0.274,0.398,-0.075,-0.2605,0.336,0.243,0.308,0.28,0.0245,0.117,-0.0775,0.0995,0.2275,-0.114
-0.1235,0.2755,0.3985,-0.076,-0.2605,0.337,0.244,0.305,0.276,0.0215,0.114,-0.079,0.0985,0.2265,-0.1135
-0.132,0.272,0.404,-0.07,-0.2675,0.338,0.248,0.3055,0.273,0.017,0.112,-0.0805,0.096,0.2235,-0.1115
-0.131,0.273,0.404,-0.071,-0.267,0.338,0.245,0.304,0.272,0.014,0.1095,-0.0825,0.095,0.221,-0.1125
-0.1315,0.2715,0.403,-0.0705,-0.2665,0.3375,0.247,0.3065,0.2715,0.0125,0.108,-0.081,0.0955,0.216,-0.1115
-0.1275,0.273,0.4,-0.073,-0.2635,0.3365,0.247,0.304,0.2715,0.0145,0.1085,-0.08,0.098,0.2235,-0.112
-0.1285,0.2725,0.4005,-0.072,-0.264,0.3365,0.245,0.302,0.27,0.0125,0.1095,-0.081,0.0975,0.2235,-0.112
-0.135,0.268,0.403,-0.0665,-0.2685,0.3355,0.2455,0.301,0.2685,0.012,0.1105,-0.082,0.096,0.2165,-0.11
-0.1335,0.27,0.4035,-0.0685,-0.268,0.337,0.2455,0.297,0.266,0.011,0.1105,-0.0815,0.097,0.213,-0.108
-0.135,0.2715,0.406,-0.0685,-0.27,0.339,0.2485,0.305,0.269,0.012,0.1115,-0.0785,0.096,0.214,-0.11
-0.138,0.2685,0.4065,-0.065,-0.272,0.3375,0.2485,0.3025,0.2695,0.011,0.111,-0.0785,0.096,0.2125,-0.111
-0.1335,0.2675,0.401,-0.067,-0.2665,0.3345,0.245,0.3,0.266,0.009,0.109,-0.08,0.0965,0.2095,-0.1095
-0.128,0.2685,0.3965,-0.07,-0.2615,0.3325,0.2445,0.301,0.267,0.013,0.1115,-0.079,0.0975,0.21,-0.11
-0.1295,0.2685,0.398,-0.0695,-0.263,0.333,0.248,0.2985,0.2665,0.014,0.112,-0.0785,0.097,0.2125,-0.111
-0.127,0.2715,0.398,-0.0725,-0.262,0.335,0.247,0.3025,0.269,0.0155,0.1115,-0.08,0.0965,0.216,-0.1095
-0.1265,0.27,0.3965,-0.0715,-0.261,0.3335,0.2455,0.3025,0.27,0.0155,0.1125,-0.0805,0.0975,0.21,-0.108
-0.133,0.266,0.399,-0.067,-0.2655,0.3325,0.2455,0.3005,0.2675,0.013,0.11,-0.082,0.0935,0.207,-0.11
-0.131,0.2685,0.399,-0.069,-0.2645,0.3335,0.2425,0.301,0.268,0.013,0.1095,-0.081,0.0945,0.211,-0.111
-0.13,0.271,0.4005,-0.0705,-0.2645,0.3355,0.2445,0.3005,0.2675,0.012,0.1095,-0.082,0.094,0.2115,-0.1125
-0.136,0.2685,0.4045,-0.0665,-0.2695,0.3365,0.2445,0.3005,0.2665,0.011,0.1065,-0.084,0.0895,0.2105,-0.113
-0.1335,0.2675,0.401,-0.0675,-0.2665,0.334,0.246,0.3025,0.269,0.0125,0.1055,-0.0865,0.09,0.208,-0.1115
-0.13,0.2685,0.398,-0.069,-0.2635,0.333,0.246,0.3015,0.2685,0.011,0.103,-0.091,0.089,0.2075,-0.1105
-0.132,0.268,0.4,-0.068,-0.265,0.3335,0.244,0.3005,0.267,0.012,0.1035,-0.09,0.0885,0.209,-0.11
-0.133,0.268,0.401,-0.0675,-0.266,0.3345,0.2455,0.3025,0.27,0.013,0.1075,-0.087,0.0915,0.2065,-0.111
-0.133,0.2715,0.4045,-0.069,-0.2685,0.338,0.244,0.301,0.269,0.013,0.108,-0.086,0.0925,0.215,-0.1115
-0.1335,0.2725,0.406,-0.0695,-0.2695,0.3395,0.2445,0.3005,0.2675,0.013,0.109,-0.086,0.093,0.224,-0.1115
-0.132,0.269,0.401,-0.0685,-0.266,0.335,0.2435,0.3,0.2665,0.012,0.1075,-0.087,0.094,0.2265,-0.11
-0.132,0.2675,0.3995,-0.068,-0.265,0.3335,0.243,0.2975,0.267,0.015,0.108,-0.0865,0.094,0.2275,-0.109
-0.131,0.2665,0.3975,-0.068,-0.2635,0.332,0.2455,0.3,0.2705,0.0165,0.1105,-0.0845,0.0955,0.227,-0.1085
-0.1295,0.2675,0.397,-0.069,-0.2625,0.332,0.2455,0.302,0.269,0.015,0.111,-0.0825,0.0975,0.2275,-0.107
-0.13,0.2685,0.3985,-0.0695,-0.2635,0.333,0.242,0.3005,0.2665,0.013,0.109,-0.0835,0.097,0.227,-0.1065
-0.1265,0.271,0.3975,-0.0725,-0.2615,0.334,0.241,0.301,0.269,0.0145,0.1105,-0.083,0.0975,0.231,-0.1075
-0.127,0.2725,0.3995,-0.073,-0.2625,0.336,0.244,0.303,0.273,0.0185,0.1145,-0.0785,0.0995,0.232,-0.1075
-0.128,0.2715,0.3995,-0.072,-0.263,0.3355,0.2475,0.3035,0.2715,0.0185,0.113,-0.0785,0.0985,0.227,-0.1065
-0.125,0.2735,0.3985,-0.074,-0.2615,0.336,0.2475,0.303,0.271,0.017,0.112,-0.08,0.097,0.2205,-0.1075
-0.1215,0.2745,0.396,-0.0765,-0.2585,0.3355,0.2405,0.305,0.273,0.018,0.1155,-0.079,0.098,0.216,-0.108
-0.123,0.275,0.398,-0.076,-0.26,0.3365,0.2465,0.303,0.2725,0.0185,0.115,-0.078,0.0985,0.221,-0.1095
-0.1255,0.2755,0.4005,-0.075,-0.2625,0.338,0.2515,0.3025,0.2725,0.017,0.1135,-0.08,0.0975,0.22,-0.109
-0.123,0.2735,0.397,-0.0755,-0.2595,0.3355,0.239,0.304,0.274,0.0175,0.1135,-0.0805,0.1005,0.2125,-0.1065
-0.121,0.276,0.397,-0.077,-0.2585,0.336,0.2405,0.3035,0.274,0.019,0.114,-0.079,0.102,0.214,-0.1065
-0.124,0.2735,0.3975,-0.0745,-0.2605,0.3355,0.2435,0.303,0.2745,0.0205,0.1135,-0.0805,0.0995,0.2135,-0.106
-0.1255,0.2735,0.399,-0.074,-0.262,0.336,0.2435,0.3015,0.2735,0.0195,0.1135,-0.0825,0.1,0.2175,-0.1055
-0.124,0.2775,0.4015,-0.0765,-0.262,0.339,0.247,0.305,0.2765,0.02,0.1155,-0.0815,0.1,0.224,-0.1065
-0.1265,0.2765,0.403,-0.075,-0.264,0.3395,0.2435,0.3055,0.276,0.0205,0.115,-0.0815,0.0975,0.224,-0.1075
-0.1245,0.277,0.4015,-0.076,-0.2625,0.339,0.245,0.305,0.2745,0.0195,0.115,-0.081,0.0995,0.222,-0.109
-0.1275,0.2735,0.4005,-0.073,-0.2635,0.337,0.246,0.3055,0.2765,0.0215,0.1145,-0.081,0.101,0.2235,-0.1105
-0.134,0.2705,0.4045,-0.0685,-0.269,0.3375,0.2425,0.3045,0.276,0.02,0.1135,-0.0825,0.102,0.2215,-0.1085
-0.1345,0.268,0.4025,-0.067,-0.2675,0.335,0.2445,0.304,0.277,0.0195,0.115,-0.0805,0.1015,0.2135,-0.108
-0.134,0.2685,0.4025,-0.0675,-0.268,0.336,0.2475,0.3045,0.2765,0.022,0.1155,-0.0805,0.0985,0.2115,-0.1105
-0.134,0.2715,0.4055,-0.069,-0.269,0.3385,0.247,0.3055,0.277,0.0215,0.114,-0.0805,0.099,0.2105,-0.109
-0.1335,0.2735,0.407,-0.0705,-0.2695,0.34,0.246,0.3055,0.278,0.0205,0.1145,-0.078,0.101,0.21,-0.1075
-0.1315,0.2755,0.407,-0.072,-0.2685,0.341,0.2445,0.305,0.2785,0.023,0.116,-0.0765,0.1035,0.2125,-0.1075
-0.1255,0.2765,0.402,-0.0755,-0.263,0.339,0.2455,0.3065,0.281,0.0245,0.117,-0.0765,0.1055,0.212,-0.1085
-0.123,0.2765,0.3995,-0.0765,-0.261,0.338,0.2435,0.3045,0.28,0.024,0.117,-0.0775,0.1065,0.213,-0.109
-0.125,0.275,0.3995,-0.075,-0.262,0.337,0.244,0.3055,0.281,0.0255,0.117,-0.078,0.1045,0.2165,-0.1085
-0.1215,0.2765,0.3985,-0.0775,-0.2595,0.3375,0.245,0.309,0.284,0.027,0.1165,-0.0775,0.106,0.2155,-0.1075
-0.1195,0.2795,0.3995,-0.08,-0.259,0.3395,0.2445,0.3095,0.2835,0.028,0.1165,-0.077,0.108,0.2215,-0.105
-0.125,0.2805,0.4055,-0.078,-0.265,0.343,0.245,0.31,0.283,0.026,0.1165,-0.077,0.1065,0.226,-0.1075
-0.1315,0.2775,0.4085,-0.073,-0.2695,0.343,0.242,0.3055,0.282,0.0245,0.113,-0.079,0.105,0.2265,-0.1085
-0.129,0.277,0.4055,-0.074,-0.267,0.341,0.241,0.3045,0.283,0.026,0.114,-0.0795,0.1045,0.2265,-0.109
-0.126,0.279,0.405,-0.0765,-0.265,0.3415,0.2415,0.306,0.284,0.029,0.1145,-0.077,0.104,0.2195,-0.112
-0.126,0.278,0.404,-0.076,-0.2645,0.341,0.2425,0.3055,0.2845,0.027,0.114,-0.079,0.106,0.217,-0.11
-0.1255,0.28,0.405,-0.077,-0.2645,0.3425,0.2395,0.303,0.285,0.026,0.113,-0.0795,0.1065,0.223,-0.107
-0.1285,0.2815,0.41,-0.0765,-0.269,0.346,0.24,0.303,0.284,0.0255,0.113,-0.0795,0.105,0.229,-0.107
-0.13,0.282,0.4115,-0.0765,-0.27,0.347,0.242,0.3055,0.284,0.0245,0.114,-0.08,0.106,0.228,-0.1075
-0.128,0.2815,0.41,-0.0765,-0.2685,0.346,0.241,0.304,0.286,0.0255,0.1145,-0.08,0.107,0.228,-0.1075
-0.1235,0.2825,0.406,-0.0795,-0.264,0.344,0.24,0.3065,0.287,0.0265,0.115,-0.0795,0.108,0.2285,-0.109
-0.1265,0.281,0.407,-0.077,-0.2665,0.344,0.2395,0.308,0.287,0.0275,0.114,-0.078,0.108,0.225,-0.1095
-0.136,0.2755,0.411,-0.0695,-0.273,0.3435,0.2355,0.305,0.285,0.0245,0.1125,-0.079,0.1045,0.22,-0.1095
-0.137,0.2745,0.4115,-0.069,-0.2735,0.343,0.2395,0.305,0.285,0.027,0.1115,-0.079,0.1045,0.2235,-0.11
-0.134,0.2775,0.411,-0.0715,-0.272,0.344,0.2355,0.3025,0.2865,0.0265,0.1115,-0.0795,0.106,0.2285,-0.1085
-0.1345,0.2785,0.4125,-0.072,-0.2725,0.3455,0.2335,0.303,0.286,0.0265,0.113,-0.08,0.104,0.2245,-0.1095
-0.133,0.2785,0.411,-0.0725,-0.2715,0.3445,0.244,0.3065,0.2875,0.0305,0.114,-0.0775,0.1065,0.2235,-0.108
-0.125,0.281,0.406,-0.078,-0.265,0.3435,0.2365,0.3045,0.288,0.031,0.1135,-0.0775,0.109,0.224,-0.105
-0.125,0.2825,0.408,-0.0785,-0.266,0.3455,0.2435,0.3095,0.2905,0.035,0.1145,-0.0755,0.111,0.225,-0.1055
-0.125,0.282,0.407,-0.0785,-0.2655,0.3445,0.2465,0.312,0.2915,0.036,0.115,-0.0745,0.11,0.2255,-0.106
-0.125,0.284,0.409,-0.0795,-0.2665,0.3465,0.242,0.3105,0.2905,0.0345,0.1145,-0.0755,0.1085,0.22,-0.106
-0.126,0.2835,0.41,-0.0785,-0.2675,0.347,0.242,0.3105,0.291,0.033,0.1145,-0.0745,0.1105,0.223,-0.105
-0.128,0.283,0.411,-0.0775,-0.269,0.347,0.2405,0.309,0.291,0.035,0.1155,-0.0745,0.1115,0.2275,-0.1045
-0.1285,0.2825,0.4105,-0.077,-0.269,0.3465,0.242,0.309,0.2885,0.0335,0.1155,-0.0745,0.1115,0.226,-0.1055
-0.1255,0.281,0.406,-0.0775,-0.2655,0.3435,0.2395,0.309,0.2895,0.033,0.117,-0.074,0.1125,0.221,-0.105
-0.125,0.2825,0.4075,-0.0785,-0.266,0.345,0.241,0.308,0.29,0.033,0.1175,-0.0745,0.112,0.221,-0.1045
-0.123,0.2855,0.4085,-0.081,-0.265,0.347,0.239,0.307,0.2885,0.0305,0.115,-0.0765,0.112,0.229,-0.105
-0.125,0.284,0.409,-0.0795,-0.2665,0.3465,0.2395,0.307,0.286,0.0295,0.113,-0.078,0.1095,0.229,-0.1055
-0.1265,0.2825,0.409,-0.078,-0.2675,0.346,0.238,0.3065,0.2835,0.026,0.112,-0.0795,0.107,0.227,-0.1055
-0.129,0.2845,0.413,-0.078,-0.2705,0.349,0.2375,0.3055,0.285,0.0255,0.1125,-0.08,0.1085,0.2305,-0.1065
-0.131,0.284,0.415,-0.0765,-0.2725,0.3495,0.2385,0.304,0.2845,0.0265,0.113,-0.079,0.1085,0.232,-0.106
-0.1325,0.28,0.4125,-0.074,-0.272,0.346,0.2375,0.3045,0.2835,0.0255,0.113,-0.0785,0.1095,0.231,-0.106
-0.1325,0.279,0.411,-0.073,-0.271,0.3445,0.238,0.304,0.2825,0.0255,0.112,-0.08,0.1065,0.23,-0.105
-0.124,0.2845,0.409,-0.0805,-0.266,0.3465,0.2385,0.3025,0.282,0.026,0.112,-0.08,0.1075,0.234,-0.104
-0.1225,0.284,0.4065,-0.081,-0.264,0.3455,0.2385,0.3045,0.284,0.0265,0.1135,-0.0795,0.108,0.235,-0.1045
-0.123,0.283,0.406,-0.08,-0.264,0.3445,0.236,0.304,0.2835,0.0265,0.1135,-0.0805,0.106,0.234,-0.105
-0.124,0.284,0.4085,-0.08,-0.2655,0.346,0.236,0.3035,0.2835,0.0275,0.1145,-0.081,0.1035,0.2305,-0.1055
-0.129,0.2805,0.409,-0.0755,-0.2685,0.3445,0.2405,0.306,0.284,0.0275,0.116,-0.081,0.101,0.226,-0.1055
-0.1295,0.279,0.408,-0.0745,-0.2685,0.3435,0.2405,0.3045,0.2825,0.0255,0.1145,-0.0845,0.1005,0.228,-0.105
-0.127,0.278,0.4045,-0.0755,-0.2655,0.341,0.239,0.301,0.2815,0.0255,0.113,-0.084,0.0985,0.2305,-0.1035
-0.123,0.281,0.404,-0.079,-0.263,0.3425,0.238,0.3,0.281,0.0255,0.114,-0.0805,0.1025,0.2325,-0.104
-0.125,0.283,0.408,-0.079,-0.266,0.3455,0.233,0.301,0.2835,0.026,0.1145,-0.082,0.104,0.2285,-0.1045
-0.1235,0.2855,0.409,-0.081,-0.266,0.3475,0.234,0.304,0.2825,0.026,0.114,-0.0825,0.1035,0.227,-0.103
-0.1205,0.2885,0.4095,-0.084,-0.2645,0.349,0.239,0.3065,0.2795,0.024,0.1135,-0.08,0.105,0.2295,-0.103
-0.124,0.286,0.41,-0.081,-0.2665,0.348,0.2365,0.306,0.279,0.0235,0.1125,-0.0785,0.1045,0.227,-0.1005
-0.122,0.287,0.4095,-0.0825,-0.2655,0.3485,0.237,0.306,0.281,0.0235,0.1125,-0.077,0.107,0.2265,-0.0975
-0.126,0.2885,0.4145,-0.0815,-0.27,0.3515,0.238,0.3055,0.281,0.0235,0.1125,-0.076,0.1065,0.2275,-0.0985
-0.123,0.2905,0.413,-0.0835,-0.2675,0.3515,0.234,0.302,0.2775,0.0215,0.113,-0.077,0.106,0.23,-0.1
-0.12,0.29,0.4105,-0.085,-0.2645,0.35,0.2365,0.3045,0.278,0.02,0.113,-0.0765,0.107,0.2315,-0.0995
-0.126,0.287,0.413,-0.0805,-0.269,0.35,0.238,0.3035,0.2765,0.021,0.1115,-0.079,0.1045,0.2305,-0.1005
-0.1165,0.2925,0.409,-0.088,-0.262,0.351,0.2325,0.3005,0.276,0.0205,0.1115,-0.0795,0.105,0.228,-0.1005
-0.117,0.2915,0.4085,-0.087,-0.2625,0.35,0.2305,0.3015,0.2755,0.019,0.111,-0.08,0.105,0.2215,-0.1005
-0.126,0.2845,0.411,-0.079,-0.268,0.348,0.236,0.3,0.2725,0.0175,0.1085,-0.0825,0.1035,0.223,-0.1005
-0.1235,0.2885,0.412,-0.0825,-0.267,0.35,0.235,0.2995,0.272,0.0155,0.1085,-0.083,0.1035,0.2295,-0.0995
-0.1255,0.287,0.4125,-0.0805,-0.2685,0.3495,0.235,0.3,0.271,0.0135,0.108,-0.084,0.103,0.2295,-0.098
-0.123,0.2855,0.409,-0.081,-0.2655,0.347,0.235,0.299,0.2705,0.013,0.1085,-0.0815,0.105,0.227,-0.0975
-0.119,0.285,0.404,-0.083,-0.261,0.3445,0.2325,0.2995,0.272,0.016,0.1075,-0.0795,0.1055,0.2225,-0.097
-0.125,0.2815,0.4065,-0.0785,-0.265,0.344,0.2335,0.302,0.272,0.017,0.108,-0.078,0.104,0.2245,-0.0975
-0.128,0.282,0.41,-0.077,-0.2685,0.346,0.235,0.3,0.2715,0.015,0.107,-0.0795,0.1035,0.227,-0.098
-0.127,0.2815,0.4085,-0.077,-0.267,0.345,0.234,0.299,0.269,0.011,0.1055,-0.08,0.1025,0.2255,-0.0965
-0.1265,0.282,0.4085,-0.0775,-0.267,0.345,0.233,0.2985,0.2675,0.011,0.1075,-0.0795,0.1025,0.227,-0.096
-0.129,0.2815,0.4105,-0.0765,-0.2695,0.346,0.2365,0.296,0.265,0.01,0.107,-0.0805,0.1015,0.2295,-0.0975
-0.1295,0.2815,0.4105,-0.076,-0.2695,0.346,0.234,0.2995,0.2665,0.0095,0.108,-0.08,0.1015,0.231,-0.0975
-0.1275,0.28,0.4075,-0.076,-0.267,0.3435,0.233,0.3015,0.2685,0.012,0.11,-0.079,0.103,0.226,-0.096
-0.127,0.279,0.406,-0.076,-0.266,0.3425,0.2355,0.3,0.2645,0.01,0.109,-0.079,0.1015,0.2245,-0.0945
-0.1245,0.2815,0.406,-0.0785,-0.265,0.344,0.233,0.298,0.2625,0.008,0.1065,-0.0795,0.1005,0.2295,-0.093
-0.1235,0.282,0.4055,-0.079,-0.264,0.344,0.2315,0.2975,0.262,0.0055,0.106,-0.081,0.1005,0.2305,-0.0925
-0.1255,0.284,0.4095,-0.0795,-0.267,0.347,0.2305,0.2965,0.262,0.0045,0.105,-0.081,0.1,0.2295,-0.092
-0.1325,0.2815,0.414,-0.0745,-0.2725,0.348,0.229,0.294,0.2585,0.0025,0.104,-0.0815,0.1,0.225,-0.092
-0.1345,0.2805,0.415,-0.073,-0.2745,0.3475,0.2315,0.2935,0.2555,0.0005,0.104,-0.083,0.1005,0.2225,-0.092
-0.1315,0.2825,0.414,-0.0755,-0.272,0.3485,0.2325,0.294,0.2575,0.001,0.105,-0.081,0.101,0.222,-0.0915
-0.127,0.2815,0.4085,-0.077,-0.2675,0.345,0.231,0.2945,0.2585,0.0015,0.1055,-0.0795,0.102,0.224,-0.0905
-0.1225,0.279,0.4015,-0.078,-0.2615,0.34,0.2305,0.293,0.256,0.001,0.105,-0.08,0.1055,0.2245,-0.0885
-0.126,0.2765,0.402,-0.075,-0.2635,0.339,0.232,0.2915,0.253,-0.0005,0.105,-0.0805,0.105,0.221,-0.09
-0.127,0.277,0.4045,-0.075,-0.2655,0.3405,0.23,0.2925,0.2525,-0.003,0.1035,-0.0825,0.103,0.222,-0.0905
-0.131,0.2745,0.405,-0.072,-0.2675,0.3395,0.2295,0.2915,0.252,-0.0035,0.1035,-0.0835,0.102,0.221,-0.0885
-0.126,0.2765,0.4025,-0.075,-0.2635,0.3395,0.2295,0.291,0.2525,-0.002,0.1055,-0.0825,0.103,0.226,-0.0875
-0.1195,0.2815,0.4005,-0.081,-0.2595,0.341,0.2305,0.2935,0.2535,-0.001,0.106,-0.0825,0.1055,0.2335,-0.0855
-0.1265,0.278,0.404,-0.0755,-0.2645,0.3405,0.2325,0.292,0.252,-0.0015,0.107,-0.083,0.1035,0.2285,-0.086
-0.1275,0.2735,0.401,-0.073,-0.2635,0.337,0.2305,0.29,0.2495,-0.003,0.107,-0.084,0.101,0.219,-0.0845
-0.127,0.273,0.4,-0.073,-0.263,0.3365,0.2295,0.288,0.246,-0.0055,0.105,-0.0855,0.101,0.2175,-0.0855
-0.1275,0.2735,0.401,-0.073,-0.264,0.3375,0.23,0.288,0.245,-0.0055,0.1035,-0.0855,0.1,0.2165,-0.0865
-0.133,0.271,0.404,-0.069,-0.268,0.3375,0.2335,0.2905,0.2475,-0.005,0.103,-0.087,0.098,0.213,-0.0865
-0.1285,0.273,0.4015,-0.072,-0.2645,0.337,0.234,0.2915,0.2475,-0.0045,0.1035,-0.0855,0.0985,0.2165,-0.089
-0.119,0.277,0.396,-0.0785,-0.2575,0.3365,0.2305,0.2905,0.2455,-0.005,0.1045,-0.0825,0.1035,0.2185,-0.085
-0.1195,0.2775,0.397,-0.0785,-0.258,0.337,0.2295,0.2865,0.2425,-0.0095,0.101,-0.087,0.101,0.2175,-0.0835
-0.1215,0.2775,0.3995,-0.078,-0.26,0.3385,0.226,0.284,0.2395,-0.0125,0.0985,-0.0895,0.096,0.2225,-0.0845
-0.121,0.278,0.399,-0.0785,-0.2595,0.3385,0.228,0.2865,0.2435,-0.011,0.099,-0.0875,0.098,0.227,-0.0845
-0.1255,0.276,0.4015,-0.0755,-0.2625,0.3385,0.233,0.291,0.244,-0.0105,0.0985,-0.088,0.0955,0.2225,-0.087
-0.1285,0.277,0.4055,-0.074,-0.2665,0.341,0.2285,0.284,0.2385,-0.014,0.097,-0.089,0.095,0.222,-0.0845
-0.127,0.279,0.406,-0.076,-0.266,0.3425,0.2275,0.2815,0.2365,-0.0155,0.0955,-0.091,0.095,0.226,-0.0835
-0.1295,0.276,0.4055,-0.073,-0.267,0.3405,0.231,0.284,0.236,-0.0165,0.096,-0.09,0.0945,0.2245,-0.085
-0.129,0.2735,0.4025,-0.072,-0.265,0.338,0.23,0.284,0.237,-0.018,0.097,-0.0895,0.0955,0.2215,-0.083
-0.127,0.275,0.402,-0.074,-0.264,0.3385,0.2295,0.2815,0.2335,-0.0205,0.0945,-0.091,0.0935,0.2205,-0.083
-0.1225,0.276,0.3985,-0.0765,-0.26,0.337,0.2285,0.28,0.235,-0.022,0.0955,-0.09,0.0965,0.218,-0.083
-0.124,0.2745,0.3985,-0.0755,-0.261,0.3365,0.2285,0.283,0.2345,-0.022,0.094,-0.0925,0.0965,0.22,-0.0825
-0.129,0.2725,0.4015,-0.0715,-0.265,0.337,0.2315,0.2835,0.229,-0.024,0.0915,-0.095,0.0905,0.22,-0.0845
-0.1275,0.271,0.3985,-0.0715,-0.2625,0.3345,0.2315,0.2825,0.232,-0.022,0.094,-0.093,0.09,0.211,-0.0845
-0.1265,0.272,0.398,-0.0725,-0.262,0.335,0.2285,0.2795,0.2305,-0.024,0.0925,-0.093,0.09,0.2135,-0.082
-0.1295,0.269,0.3985,-0.07,-0.2635,0.3335,0.2285,0.2805,0.229,-0.0255,0.092,-0.0945,0.088,0.2165,-0.081
-0.132,0.2675,0.3995,-0.068,-0.265,0.3335,0.231,0.283,0.2285,-0.0235,0.0925,-0.093,0.088,0.216,-0.0815
-0.131,0.2685,0.3995,-0.0685,-0.2645,0.334,0.2295,0.28,0.2265,-0.024,0.091,-0.0935,0.0885,0.219,-0.0805
-0.1295,0.268,0.3975,-0.069,-0.263,0.3325,0.229,0.279,0.2275,-0.0245,0.093,-0.0935,0.091,0.217,-0.079
-0.1315,0.268,0.4,-0.0685,-0.265,0.334,0.2285,0.28,0.227,-0.0245,0.094,-0.0915,0.0905,0.214,-0.0795
-0.1365,0.263,0.3995,-0.0635,-0.2675,0.331,0.2255,0.277,0.224,-0.026,0.0925,-0.0945,0.0875,0.2095,-0.079
-0.137,0.261,0.3985,-0.062,-0.2675,0.33,0.228,0.277,0.222,-0.0265,0.091,-0.094,0.087,0.2095,-0.08
-0.1335,0.2625,0.3965,-0.0645,-0.2645,0.3295,0.2315,0.277,0.2235,-0.0265,0.091,-0.092,0.088,0.2135,-0.0795
-0.1335,0.2615,0.395,-0.064,-0.2635,0.3285,0.228,0.276,0.222,-0.0275,0.09,-0.0945,0.0875,0.215,-0.078
-0.131,0.264,0.395,-0.067,-0.2625,0.3295,0.225,0.273,0.219,-0.029,0.088,-0.0955,0.0875,0.213,-0.0795
-0.133,0.2645,0.3975,-0.0655,-0.265,0.331,0.227,0.273,0.219,-0.029,0.0895,-0.0945,0.088,0.213,-0.0785
-0.1355,0.265,0.4005,-0.0645,-0.2675,0.3325,0.2265,0.2735,0.22,-0.03,0.089,-0.095,0.089,0.2115,-0.079
-0.1345,0.263,0.3975,-0.0645,-0.2655,0.33,0.2245,0.2705,0.2185,-0.0325,0.0865,-0.0965,0.089,0.2055,-0.0785
-0.1425,0.258,0.4005,-0.058,-0.271,0.3295,0.2245,0.2715,0.2185,-0.031,0.087,-0.097,0.0865,0.2065,-0.0785
-0.14,0.26,0.4,-0.06,-0.269,0.33,0.227,0.2725,0.219,-0.033,0.0885,-0.0965,0.0885,0.2115,-0.078
-0.133,0.2625,0.396,-0.065,-0.264,0.329,0.226,0.2715,0.2175,-0.036,0.086,-0.0965,0.09,0.215,-0.076
-0.1345,0.263,0.397,-0.0645,-0.265,0.33,0.225,0.2725,0.2175,-0.035,0.085,-0.096,0.0885,0.2115,-0.078
-0.136,0.26,0.396,-0.062,-0.265,0.328,0.2275,0.2715,0.2175,-0.0355,0.088,-0.0955,0.0895,0.205,-0.0765
