i,ii,iii,avr,avl,avf,v1,v2,v3,v4,v5,v6,vx,vy,vz
0.0235,0.3735,0.35,-0.1985,-0.163,0.3615,0.0385,-0.0635,0.281,-0.06,0.221,0.32,-0.03,0.0055,0.121
0.05,0.374,0.3245,-0.212,-0.137,0.349,0.0365,-0.0645,0.2805,-0.0595,0.217,0.316,-0.0245,0.001,0.12
0.02,0.375,0.3555,-0.1975,-0.1675,0.365,0.0485,-0.055,0.2885,-0.052,0.2225,0.319,-0.0295,0.011,0.116
-0.0005,0.373,0.374,-0.1865,-0.187,0.373,0.0515,-0.0525,0.289,-0.0495,0.226,0.3225,-0.033,0.013,0.1185
-0.012,0.3645,0.3765,-0.176,-0.194,0.37,0.0525,-0.0545,0.2915,-0.047,0.2285,0.3225,-0.034,0.011,0.1205
-0.017,0.36,0.377,-0.1715,-0.197,0.3685,0.053,-0.0545,0.292,-0.0455,0.229,0.3185,-0.0365,0.013,0.1175
-0.008,0.3595,0.3675,-0.1755,-0.1875,0.3635,0.0525,-0.053,0.2925,-0.044,0.232,0.3235,-0.029,0.003,0.12
-0.001,0.354,0.355,-0.1765,-0.1775,0.354,0.0565,-0.0535,0.2895,-0.048,0.2285,0.321,-0.0315,-0.0055,0.1205
0.011,0.3495,0.3385,-0.18,-0.1635,0.3435,0.0505,-0.058,0.284,-0.0555,0.2215,0.3125,-0.0345,-0.005,0.1205
0.012,0.349,0.337,-0.1805,-0.1625,0.343,0.046,-0.0585,0.286,-0.054,0.222,0.3165,-0.0305,-0.005,0.12
0.006,0.355,0.349,-0.1805,-0.171,0.3515,0.054,-0.046,0.2985,-0.0415,0.234,0.3245,-0.027,-0.0015,0.1135
-0.008,0.346,0.354,-0.169,-0.181,0.3495,0.0585,-0.0395,0.3025,-0.04,0.235,0.3235,-0.027,-0.003,0.1125
-0.0195,0.3415,0.361,-0.161,-0.19,0.351,0.0585,-0.043,0.298,-0.046,0.227,0.317,-0.0325,-0.0055,0.1125
-0.014,0.3445,0.359,-0.165,-0.1865,0.352,0.055,-0.0485,0.292,-0.049,0.2245,0.313,-0.032,-0.003,0.114
-0.0055,0.3485,0.354,-0.1715,-0.1795,0.3515,0.0535,-0.056,0.281,-0.0585,0.2185,0.3105,-0.0315,-0.003,0.113
-0.0135,0.3635,0.377,-0.1745,-0.195,0.37,0.0585,-0.054,0.281,-0.0575,0.22,0.313,-0.0365,0.003,0.104
-0.028,0.3615,0.3895,-0.1665,-0.2085,0.375,0.0565,-0.0615,0.273,-0.0625,0.218,0.3095,-0.039,0.004,0.1065
-0.0265,0.3585,0.385,-0.166,-0.2055,0.3715,0.0585,-0.0785,0.257,-0.076,0.2085,0.3,-0.0465,0.0045,0.109
-0.0295,0.365,0.3945,-0.168,-0.2115,0.3795,0.0605,-0.0885,0.24,-0.0905,0.196,0.29,-0.0625,0.0065,0.113
-0.0355,0.375,0.4105,-0.1695,-0.223,0.3925,0.0495,-0.1095,0.213,-0.1085,0.188,0.294,-0.063,0.015,0.127
-0.035,0.3905,0.425,-0.178,-0.2295,0.4075,0.0335,-0.143,0.1855,-0.123,0.1915,0.3105,-0.0515,0.0245,0.1415
-0.042,0.396,0.438,-0.177,-0.24,0.417,0.0145,-0.182,0.151,-0.1455,0.1875,0.3225,-0.0455,0.0225,0.1595
-0.033,0.414,0.4475,-0.1905,-0.24,0.4305,-0.007,-0.225,0.1095,-0.171,0.183,0.339,-0.0405,0.037,0.1785
-0.0195,0.448,0.467,-0.214,-0.243,0.4575,-0.037,-0.269,0.0695,-0.1925,0.19,0.368,-0.0245,0.063,0.2055
0.0,0.463,0.4625,-0.2315,-0.231,0.4625,-0.0795,-0.3285,0.0145,-0.2255,0.1895,0.397,0.0,0.0805,0.24
0.022,0.4695,0.4475,-0.246,-0.2125,0.4585,-0.117,-0.384,-0.0385,-0.2595,0.1865,0.4185,0.016,0.0935,0.2635
0.028,0.4935,0.465,-0.2605,-0.2185,0.479,-0.157,-0.4315,-0.081,-0.2845,0.1925,0.449,0.0405,0.1095,0.2895
0.0605,0.525,0.464,-0.2925,-0.2015,0.494,-0.197,-0.489,-0.1315,-0.314,0.1895,0.4715,0.06,0.126,0.3155
0.07,0.542,0.4715,-0.3065,-0.2005,0.507,-0.2235,-0.5335,-0.171,-0.342,0.185,0.4925,0.0735,0.151,0.3435
0.0755,0.558,0.4815,-0.317,-0.203,0.52,-0.25,-0.573,-0.2115,-0.374,0.175,0.5155,0.085,0.168,0.374
0.094,0.5735,0.479,-0.334,-0.1925,0.5265,-0.2795,-0.61,-0.2505,-0.406,0.1605,0.53,0.0975,0.178,0.397
0.1035,0.593,0.489,-0.3485,-0.1925,0.541,-0.304,-0.63,-0.27,-0.425,0.153,0.5475,0.1165,0.1845,0.421
0.1265,0.6045,0.4775,-0.3655,-0.1755,0.541,-0.3245,-0.639,-0.2795,-0.437,0.1525,0.569,0.1375,0.1845,0.4435
0.1495,0.61,0.46,-0.38,-0.155,0.5345,-0.344,-0.644,-0.2895,-0.452,0.1465,0.584,0.1595,0.202,0.4615
0.1765,0.621,0.445,-0.3985,-0.134,0.5325,-0.3615,-0.6495,-0.299,-0.469,0.136,0.6015,0.179,0.213,0.475
0.1965,0.641,0.4445,-0.4185,-0.124,0.5425,-0.3815,-0.653,-0.3,-0.472,0.1435,0.6335,0.209,0.2315,0.4845
0.2165,0.68,0.4635,-0.4485,-0.1235,0.5715,-0.398,-0.663,-0.311,-0.484,0.1415,0.6595,0.2305,0.258,0.5015
0.246,0.7235,0.477,-0.4845,-0.1155,0.6,-0.423,-0.689,-0.334,-0.497,0.147,0.6955,0.2585,0.2905,0.5215
0.28,0.7735,0.493,-0.5265,-0.1065,0.633,-0.4575,-0.7195,-0.35,-0.4955,0.172,0.748,0.305,0.339,0.5365
0.3275,0.8405,0.5125,-0.584,-0.0925,0.676,-0.486,-0.745,-0.3545,-0.483,0.207,0.8115,0.3615,0.385,0.5445
0.362,0.892,0.53,-0.627,-0.084,0.711,-0.4985,-0.7505,-0.3465,-0.461,0.239,0.868,0.4095,0.431,0.541
0.3755,0.9335,0.5575,-0.654,-0.091,0.745,-0.4995,-0.7575,-0.338,-0.4455,0.259,0.9075,0.4325,0.4845,0.535
0.4005,0.983,0.582,-0.692,-0.0905,0.7825,-0.508,-0.7915,-0.359,-0.4545,0.266,0.94,0.4505,0.5375,0.541
0.4255,1.038,0.612,-0.7315,-0.093,0.8245,-0.5225,-0.82,-0.3775,-0.458,0.2745,0.9715,0.472,0.5845,0.5435
0.4415,1.0495,0.6075,-0.7455,-0.083,0.8285,-0.511,-0.825,-0.3765,-0.4525,0.285,0.9935,0.4825,0.6035,0.541
0.439,0.9815,0.542,-0.7105,-0.0515,0.7615,-0.4865,-0.8365,-0.4075,-0.493,0.236,0.952,0.446,0.5545,0.563
0.445,0.947,0.5015,-0.696,-0.0285,0.724,-0.4775,-0.8735,-0.4515,-0.534,0.19,0.916,0.411,0.516,0.5815
0.4245,0.9,0.475,-0.6625,-0.0255,0.6875,-0.457,-0.9065,-0.4875,-0.5595,0.1605,0.8845,0.3745,0.4825,0.589
0.3875,0.7745,0.387,-0.5815,0.0,0.5805,-0.3915,-0.887,-0.4945,-0.5845,0.107,0.8115,0.3105,0.377,0.594
0.362,0.678,0.316,-0.52,0.0225,0.497,-0.3505,-0.8695,-0.4925,-0.5965,0.071,0.757,0.267,0.2995,0.601
0.308,0.6215,0.3135,-0.4645,-0.003,0.467,-0.355,-0.888,-0.5135,-0.6195,0.033,0.703,0.22,0.2725,0.625
0.2575,0.5885,0.331,-0.423,-0.0365,0.4595,-0.3235,-0.8885,-0.5175,-0.6305,-0.0065,0.637,0.157,0.256,0.624
0.1875,0.5725,0.3845,-0.38,-0.098,0.4785,-0.2965,-0.895,-0.5185,-0.6315,-0.0395,0.57,0.084,0.271,0.6115
0.1405,0.58,0.4395,-0.36,-0.149,0.5095,-0.306,-0.9105,-0.525,-0.6315,-0.0545,0.5235,0.032,0.296,0.612
0.1095,0.6105,0.5005,-0.36,-0.1955,0.5555,-0.314,-0.9035,-0.505,-0.605,-0.0425,0.507,0.011,0.3345,0.603
0.0925,0.6335,0.5405,-0.363,-0.224,0.587,-0.334,-0.9015,-0.49,-0.5875,-0.0395,0.478,-0.015,0.365,0.599
0.097,0.668,0.5705,-0.3825,-0.2365,0.619,-0.3475,-0.892,-0.4625,-0.5535,-0.0135,0.4645,-0.0305,0.3975,0.575
0.0725,0.702,0.629,-0.3875,-0.278,0.6655,-0.3645,-0.8565,-0.4145,-0.5,0.037,0.49,-0.017,0.4365,0.556
0.053,0.6925,0.639,-0.3725,-0.293,0.6655,-0.391,-0.832,-0.4,-0.4945,0.03,0.4655,-0.0325,0.43,0.568
0.0215,0.6645,0.6425,-0.343,-0.3105,0.6535,-0.381,-0.8195,-0.412,-0.528,-0.0245,0.389,-0.0995,0.39,0.5765
-0.032,0.6145,0.646,-0.291,-0.339,0.63,-0.359,-0.805,-0.438,-0.5825,-0.0965,0.3005,-0.1815,0.3455,0.5945
-0.0855,0.5455,0.6305,-0.23,-0.358,0.588,-0.337,-0.785,-0.454,-0.6295,-0.1685,0.2075,-0.263,0.2985,0.605
-0.1145,0.4785,0.5925,-0.182,-0.3535,0.5355,-0.3155,-0.753,-0.453,-0.658,-0.222,0.136,-0.3225,0.239,0.6015
-0.1385,0.407,0.5445,-0.134,-0.3415,0.4755,-0.305,-0.7255,-0.4525,-0.682,-0.264,0.079,-0.365,0.176,0.604
-0.1605,0.3425,0.5025,-0.091,-0.3315,0.4225,-0.2865,-0.689,-0.4425,-0.6935,-0.294,0.0345,-0.4015,0.11,0.6065
-0.168,0.295,0.4625,-0.0635,-0.315,0.3785,-0.2555,-0.639,-0.413,-0.689,-0.313,-0.0005,-0.432,0.053,0.596
-0.1745,0.263,0.438,-0.044,-0.306,0.35,-0.261,-0.5925,-0.3735,-0.665,-0.306,-0.014,-0.429,0.018,0.584
-0.179,0.2375,0.4165,-0.029,-0.2975,0.3265,-0.2755,-0.559,-0.342,-0.635,-0.284,-0.011,-0.4175,-0.015,0.57
-0.1815,0.2215,0.403,-0.02,-0.292,0.312,-0.271,-0.529,-0.3115,-0.6115,-0.266,-0.01,-0.414,-0.0395,0.5515
-0.187,0.2145,0.402,-0.014,-0.294,0.308,-0.2525,-0.483,-0.266,-0.573,-0.238,-0.0045,-0.404,-0.0505,0.522
-0.188,0.2115,0.3995,-0.0115,-0.2935,0.3055,-0.22,-0.4335,-0.2145,-0.529,-0.208,0.0025,-0.3975,-0.0535,0.482
-0.1805,0.2065,0.387,-0.013,-0.2835,0.2965,-0.1865,-0.3665,-0.149,-0.48,-0.174,0.015,-0.378,-0.058,0.441
-0.159,0.205,0.364,-0.023,-0.261,0.2845,-0.143,-0.2925,-0.079,-0.426,-0.1365,0.0325,-0.353,-0.0765,0.397
-0.1455,0.2175,0.363,-0.036,-0.254,0.29,-0.107,-0.2275,-0.0095,-0.37,-0.0935,0.0535,-0.327,-0.0735,0.3515
-0.153,0.2315,0.384,-0.039,-0.2685,0.3075,-0.065,-0.1625,0.064,-0.305,-0.0425,0.08,-0.3005,-0.067,0.305
-0.143,0.234,0.377,-0.0455,-0.2595,0.305,-0.0315,-0.09,0.142,-0.2335,0.0135,0.113,-0.261,-0.068,0.2615
-0.1145,0.2555,0.37,-0.0705,-0.242,0.3125,0.0005,-0.01,0.228,-0.157,0.079,0.156,-0.2115,-0.058,0.2155
-0.0825,0.2735,0.356,-0.0955,-0.219,0.3145,0.0435,0.0565,0.303,-0.089,0.138,0.194,-0.1695,-0.068,0.1705
-0.0645,0.276,0.341,-0.106,-0.2025,0.308,0.0705,0.1105,0.3695,-0.025,0.191,0.227,-0.1245,-0.067,0.1315
-0.03,0.304,0.3335,-0.137,-0.1815,0.3185,0.085,0.142,0.417,0.0235,0.231,0.2545,-0.0885,-0.045,0.102
0.009,0.333,0.3245,-0.171,-0.1575,0.3285,0.0825,0.147,0.444,0.0565,0.2605,0.274,-0.062,-0.0255,0.0845
-0.005,0.3455,0.3505,-0.17,-0.1775,0.3475,0.086,0.155,0.472,0.0915,0.293,0.2965,-0.0415,-0.0115,0.0735
-0.012,0.359,0.371,-0.1735,-0.191,0.3645,0.0995,0.16,0.493,0.1195,0.318,0.3185,-0.026,-0.0055,0.065
-0.0045,0.3725,0.3775,-0.184,-0.191,0.3745,0.105,0.17,0.5155,0.1455,0.3425,0.3385,-0.0085,0.007,0.056
-0.0125,0.3705,0.383,-0.179,-0.198,0.3765,0.1145,0.1855,0.5365,0.1625,0.3585,0.349,0.0015,0.014,0.0475
0.0115,0.369,0.357,-0.1905,-0.1725,0.3625,0.1155,0.183,0.5405,0.168,0.36,0.349,0.009,0.0135,0.0425
0.025,0.3665,0.3415,-0.196,-0.158,0.3535,0.124,0.1935,0.5555,0.181,0.37,0.356,0.018,0.009,0.0345
0.0325,0.366,0.333,-0.1995,-0.15,0.3495,0.142,0.2195,0.5805,0.2025,0.387,0.3695,0.0325,-0.011,0.0285
0.042,0.3595,0.317,-0.201,-0.1375,0.338,0.1515,0.2355,0.597,0.219,0.3995,0.378,0.0445,-0.024,0.025
0.0205,0.3475,0.327,-0.184,-0.153,0.337,0.166,0.247,0.6085,0.2295,0.4095,0.382,0.0425,-0.0295,0.014
0.024,0.348,0.324,-0.186,-0.1495,0.3355,0.1715,0.2545,0.619,0.2385,0.4145,0.384,0.048,-0.032,0.0075
0.02,0.341,0.321,-0.1805,-0.15,0.3305,0.173,0.259,0.6265,0.2455,0.419,0.386,0.0575,-0.0335,0.007
0.0255,0.341,0.3155,-0.183,-0.145,0.328,0.176,0.261,0.628,0.2465,0.4185,0.382,0.061,-0.031,0.003
0.0255,0.347,0.3215,-0.186,-0.148,0.334,0.1815,0.2715,0.639,0.2575,0.428,0.3875,0.0665,-0.0245,-0.0015
0.0475,0.3525,0.305,-0.2,-0.1285,0.3285,0.1785,0.275,0.643,0.2605,0.4325,0.386,0.076,-0.028,-0.0025
0.0825,0.358,0.275,-0.22,-0.096,0.3165,0.1675,0.2665,0.6365,0.2515,0.424,0.3755,0.0805,-0.0305,-0.0045
0.067,0.3595,0.2925,-0.2135,-0.1125,0.326,0.171,0.2745,0.647,0.2595,0.43,0.3785,0.0805,-0.0275,-0.0065
0.0735,0.367,0.2935,-0.2205,-0.1095,0.33,0.173,0.278,0.651,0.262,0.4275,0.3765,0.08,-0.0205,-0.007
0.0705,0.37,0.2995,-0.2205,-0.1145,0.335,0.1705,0.277,0.6495,0.2615,0.426,0.375,0.079,-0.0245,-0.0055
0.0725,0.371,0.298,-0.222,-0.1125,0.3345,0.169,0.279,0.6485,0.261,0.4275,0.373,0.0775,-0.0195,-0.0055
0.07,0.3655,0.295,-0.218,-0.112,0.33,0.168,0.2755,0.6455,0.259,0.4245,0.3725,0.076,-0.019,-0.0065
0.0475,0.359,0.3115,-0.203,-0.132,0.335,0.1785,0.279,0.6505,0.2625,0.429,0.375,0.074,-0.021,-0.006
0.0545,0.36,0.3055,-0.207,-0.125,0.3325,0.177,0.282,0.6545,0.265,0.432,0.376,0.0735,-0.028,-0.006
0.0625,0.3565,0.294,-0.2095,-0.1155,0.325,0.171,0.28,0.653,0.266,0.4305,0.3795,0.081,-0.041,-0.0005
0.055,0.348,0.293,-0.2015,-0.119,0.3205,0.179,0.2915,0.661,0.273,0.436,0.385,0.0835,-0.035,-0.0045
0.0525,0.338,0.285,-0.1955,-0.116,0.311,0.1815,0.2955,0.6655,0.2755,0.4395,0.39,0.0805,-0.0445,-0.0075
0.064,0.3355,0.2715,-0.1995,-0.1035,0.3035,0.1875,0.293,0.6645,0.275,0.438,0.391,0.083,-0.047,-0.006
0.062,0.334,0.272,-0.198,-0.1045,0.3025,0.192,0.297,0.669,0.282,0.446,0.3975,0.086,-0.0465,-0.009
0.0555,0.327,0.2715,-0.191,-0.108,0.2985,0.1925,0.2975,0.6725,0.29,0.454,0.4055,0.091,-0.0475,-0.0105
0.058,0.33,0.272,-0.194,-0.107,0.301,0.196,0.3035,0.679,0.296,0.4615,0.4125,0.0985,-0.0435,-0.013
0.056,0.3335,0.2775,-0.1945,-0.1105,0.305,0.1945,0.303,0.678,0.295,0.4645,0.4155,0.1005,-0.0495,-0.013
0.0595,0.3345,0.2745,-0.197,-0.107,0.304,0.1955,0.303,0.679,0.296,0.465,0.4175,0.103,-0.0455,-0.0135
0.0585,0.3385,0.28,-0.1985,-0.1105,0.309,0.191,0.301,0.679,0.2935,0.466,0.418,0.1005,-0.0505,-0.013
0.0545,0.3435,0.289,-0.199,-0.117,0.3165,0.188,0.298,0.678,0.2915,0.4665,0.418,0.098,-0.0355,-0.0155
0.048,0.3465,0.2985,-0.197,-0.125,0.3225,0.1885,0.2995,0.679,0.2915,0.464,0.4145,0.0975,-0.026,-0.0185
0.049,0.3465,0.2975,-0.1975,-0.124,0.322,0.1815,0.2925,0.67,0.283,0.457,0.4085,0.0985,-0.0375,-0.0135
0.0645,0.357,0.2925,-0.211,-0.114,0.3245,0.1815,0.295,0.6725,0.2825,0.458,0.4115,0.096,-0.0305,-0.013
0.066,0.358,0.292,-0.212,-0.113,0.3245,0.188,0.299,0.6765,0.2835,0.4555,0.407,0.0865,-0.0335,-0.0145
0.0595,0.3535,0.294,-0.2065,-0.117,0.3235,0.1885,0.2985,0.675,0.2815,0.449,0.402,0.092,-0.036,-0.012
0.0595,0.363,0.3035,-0.211,-0.1215,0.333,0.181,0.2955,0.673,0.279,0.446,0.4005,0.0925,-0.026,-0.0105
0.0505,0.3535,0.3025,-0.202,-0.126,0.328,0.1845,0.299,0.675,0.2825,0.4475,0.3985,0.0865,-0.0235,-0.014
0.039,0.3375,0.2985,-0.188,-0.1295,0.3175,0.188,0.3035,0.679,0.2865,0.449,0.3985,0.085,-0.0415,-0.0145
0.034,0.344,0.3105,-0.189,-0.1375,0.327,0.1905,0.3075,0.6845,0.293,0.4575,0.402,0.0835,-0.0395,-0.0165
0.033,0.3435,0.3105,-0.188,-0.1385,0.327,0.193,0.31,0.6885,0.299,0.4625,0.406,0.0905,-0.0355,-0.0175
0.026,0.3365,0.3105,-0.181,-0.142,0.323,0.198,0.31,0.69,0.3005,0.465,0.409,0.0915,-0.0445,-0.018
0.0425,0.336,0.2935,-0.189,-0.1255,0.3145,0.199,0.3115,0.691,0.302,0.467,0.4105,0.092,-0.0425,-0.0205
0.0825,0.3355,0.253,-0.209,-0.085,0.294,0.187,0.304,0.684,0.2965,0.459,0.403,0.0975,-0.0425,-0.019
0.07,0.3355,0.2655,-0.203,-0.0975,0.3,0.1945,0.3055,0.6875,0.303,0.465,0.4065,0.099,-0.041,-0.0225
0.0625,0.3385,0.276,-0.2005,-0.1065,0.307,0.1935,0.307,0.6905,0.3075,0.472,0.414,0.102,-0.0495,-0.021
0.0645,0.34,0.2755,-0.2025,-0.105,0.3075,0.195,0.3135,0.6955,0.312,0.4775,0.4185,0.104,-0.059,-0.0215
0.048,0.335,0.287,-0.1915,-0.1195,0.311,0.208,0.323,0.706,0.3215,0.4865,0.427,0.102,-0.0605,-0.0255
0.043,0.3315,0.2885,-0.1875,-0.1225,0.31,0.207,0.3195,0.702,0.32,0.4855,0.427,0.1,-0.051,-0.0255
0.0495,0.334,0.284,-0.1915,-0.117,0.3085,0.1965,0.3105,0.695,0.3155,0.4825,0.4215,0.101,-0.05,-0.0285
0.058,0.337,0.279,-0.1975,-0.11,0.3075,0.189,0.305,0.6925,0.311,0.479,0.416,0.1035,-0.051,-0.029
0.0675,0.3485,0.2805,-0.208,-0.106,0.3145,0.187,0.304,0.691,0.3065,0.472,0.409,0.1025,-0.0435,-0.029
0.0855,0.359,0.2735,-0.222,-0.094,0.316,0.1835,0.303,0.691,0.305,0.471,0.411,0.108,-0.0445,-0.029
0.0635,0.351,0.287,-0.2075,-0.1115,0.3185,0.19,0.3115,0.696,0.3095,0.4765,0.414,0.1105,-0.038,-0.029
0.054,0.354,0.3,-0.204,-0.123,0.327,0.192,0.3145,0.6965,0.3095,0.473,0.41,0.1085,-0.033,-0.0265
0.066,0.3645,0.2985,-0.215,-0.1165,0.3315,0.19,0.3115,0.695,0.3065,0.47,0.409,0.112,-0.0345,-0.024
0.0605,0.365,0.3045,-0.2125,-0.122,0.3345,0.1915,0.3115,0.693,0.3025,0.464,0.4035,0.1105,-0.027,-0.026
0.057,0.362,0.305,-0.2095,-0.1235,0.333,0.1905,0.3065,0.691,0.297,0.456,0.394,0.106,-0.0245,-0.025
0.056,0.3585,0.3025,-0.207,-0.123,0.33,0.191,0.3105,0.6935,0.3,0.457,0.393,0.105,-0.035,-0.0245
0.055,0.3575,0.3025,-0.206,-0.1235,0.3295,0.1925,0.312,0.692,0.3005,0.4545,0.391,0.1015,-0.0305,-0.0265
0.0485,0.3595,0.3105,-0.204,-0.1305,0.335,0.196,0.3165,0.699,0.3065,0.459,0.3925,0.097,-0.0145,-0.031
0.047,0.352,0.305,-0.1995,-0.1285,0.328,0.1955,0.321,0.703,0.3115,0.461,0.392,0.096,-0.0205,-0.0305
0.038,0.344,0.306,-0.191,-0.1335,0.3245,0.201,0.321,0.702,0.3115,0.4575,0.3875,0.09,-0.029,-0.028
0.0355,0.3435,0.308,-0.1895,-0.136,0.3255,0.205,0.3255,0.705,0.313,0.4585,0.3875,0.086,-0.033,-0.0285
0.0385,0.336,0.2975,-0.187,-0.1295,0.3165,0.201,0.3245,0.7045,0.3125,0.4575,0.387,0.09,-0.048,-0.028
0.0285,0.335,0.3065,-0.1815,-0.1385,0.32,0.208,0.335,0.7165,0.3255,0.4705,0.3965,0.0935,-0.0545,-0.0305
0.0225,0.3305,0.3075,-0.1765,-0.142,0.319,0.211,0.3435,0.7235,0.3325,0.4795,0.4035,0.0965,-0.045,-0.032
0.0235,0.3275,0.304,-0.1755,-0.14,0.3155,0.2105,0.339,0.723,0.3315,0.4795,0.406,0.1,-0.04,-0.0345
0.045,0.3305,0.285,-0.188,-0.12,0.3075,0.205,0.3335,0.7165,0.3265,0.4755,0.403,0.1015,-0.0385,-0.0365
0.0735,0.327,0.2535,-0.2005,-0.0895,0.29,0.191,0.3215,0.705,0.316,0.467,0.3955,0.1025,-0.0445,-0.0375
0.067,0.3255,0.2585,-0.1965,-0.0955,0.292,0.1985,0.33,0.714,0.3235,0.476,0.405,0.106,-0.059,-0.0385
0.06,0.3355,0.2755,-0.1975,-0.1075,0.305,0.2045,0.335,0.7165,0.326,0.481,0.411,0.107,-0.046,-0.04
0.0655,0.3425,0.2775,-0.204,-0.106,0.31,0.203,0.3315,0.7155,0.325,0.48,0.4115,0.108,-0.037,-0.039
0.0595,0.3375,0.278,-0.1985,-0.1095,0.3075,0.206,0.337,0.72,0.328,0.483,0.415,0.109,-0.0455,-0.04
0.06,0.3395,0.28,-0.1995,-0.11,0.309,0.204,0.336,0.719,0.3235,0.478,0.412,0.108,-0.0395,-0.042
0.058,0.341,0.2835,-0.1995,-0.113,0.312,0.205,0.3355,0.719,0.322,0.4765,0.413,0.1075,-0.0375,-0.0425
0.064,0.347,0.2835,-0.2055,-0.1095,0.315,0.202,0.339,0.7195,0.3255,0.4795,0.4165,0.1115,-0.0365,-0.0445
0.0575,0.346,0.288,-0.2015,-0.115,0.3165,0.199,0.3395,0.721,0.3285,0.4785,0.416,0.114,-0.029,-0.0435
0.0485,0.3385,0.2895,-0.1935,-0.12,0.314,0.2035,0.3415,0.724,0.33,0.478,0.414,0.1115,-0.0305,-0.048
0.072,0.3515,0.28,-0.212,-0.1035,0.3155,0.2065,0.349,0.73,0.3345,0.4835,0.4175,0.115,-0.0375,-0.0485
0.075,0.357,0.282,-0.216,-0.103,0.319,0.2055,0.3475,0.727,0.3355,0.485,0.4175,0.1145,-0.043,-0.045
0.051,0.3435,0.2925,-0.1975,-0.1205,0.318,0.2125,0.352,0.7315,0.3395,0.486,0.417,0.111,-0.0475,-0.045
0.046,0.3315,0.2855,-0.189,-0.1195,0.308,0.2145,0.3505,0.7295,0.337,0.4825,0.41,0.104,-0.0535,-0.043
0.0555,0.333,0.2775,-0.194,-0.111,0.305,0.219,0.3525,0.7325,0.34,0.485,0.407,0.0975,-0.0495,-0.0485
0.035,0.3255,0.2905,-0.18,-0.1275,0.3075,0.2295,0.364,0.7405,0.345,0.4885,0.4115,0.096,-0.0465,-0.0515
0.036,0.315,0.279,-0.1755,-0.121,0.297,0.223,0.3595,0.732,0.3375,0.4825,0.404,0.097,-0.056,-0.044
0.05,0.3215,0.272,-0.186,-0.1105,0.2965,0.2255,0.362,0.736,0.339,0.482,0.402,0.0965,-0.051,-0.046
0.0345,0.326,0.2915,-0.18,-0.128,0.3085,0.23,0.37,0.7435,0.3475,0.4875,0.406,0.095,-0.057,-0.0495
0.017,0.333,0.316,-0.175,-0.1495,0.324,0.2335,0.381,0.7555,0.359,0.498,0.413,0.097,-0.057,-0.051
0.0155,0.3375,0.3225,-0.1765,-0.1535,0.33,0.236,0.3835,0.757,0.3575,0.4935,0.407,0.095,-0.041,-0.059
0.0255,0.3375,0.3125,-0.1815,-0.143,0.325,0.232,0.386,0.7605,0.3595,0.499,0.4085,0.1015,-0.0495,-0.0595
0.0435,0.35,0.3065,-0.197,-0.131,0.328,0.2275,0.3855,0.7635,0.3615,0.501,0.4105,0.1095,-0.0455,-0.0585
0.091,0.361,0.2695,-0.226,-0.089,0.315,0.213,0.3655,0.7435,0.3395,0.476,0.388,0.1045,-0.027,-0.0615
0.0815,0.3565,0.275,-0.219,-0.0965,0.3155,0.213,0.365,0.742,0.335,0.4725,0.3845,0.101,-0.021,-0.0585
0.0495,0.3515,0.3015,-0.2005,-0.1255,0.3265,0.2175,0.375,0.7515,0.3435,0.4765,0.391,0.103,-0.0225,-0.057
0.057,0.354,0.2965,-0.2055,-0.1195,0.325,0.217,0.3765,0.7525,0.343,0.478,0.394,0.107,-0.0295,-0.056
0.041,0.347,0.306,-0.194,-0.1325,0.3265,0.2225,0.3775,0.754,0.342,0.4775,0.396,0.107,-0.0355,-0.0545
0.0395,0.3375,0.298,-0.1885,-0.129,0.3175,0.231,0.388,0.7635,0.3495,0.482,0.4005,0.1045,-0.037,-0.06
0.055,0.335,0.2805,-0.195,-0.1125,0.3075,0.2405,0.395,0.769,0.356,0.4885,0.4055,0.1095,-0.048,-0.06
0.057,0.3375,0.281,-0.197,-0.1115,0.309,0.2395,0.3965,0.772,0.3575,0.488,0.406,0.114,-0.056,-0.06
0.0455,0.337,0.2915,-0.1915,-0.1225,0.314,0.2445,0.401,0.776,0.3625,0.492,0.4095,0.1135,-0.0425,-0.0635
0.053,0.329,0.276,-0.191,-0.1115,0.302,0.2415,0.3985,0.772,0.361,0.491,0.406,0.118,-0.041,-0.0625
0.069,0.327,0.258,-0.198,-0.0945,0.292,0.235,0.396,0.7715,0.3595,0.49,0.4065,0.1235,-0.0545,-0.06
0.059,0.3245,0.266,-0.1915,-0.1035,0.295,0.246,0.403,0.7765,0.3635,0.4895,0.4075,0.119,-0.051,-0.0625
0.048,0.321,0.273,-0.1845,-0.112,0.2965,0.2525,0.411,0.7815,0.365,0.488,0.404,0.1115,-0.0495,-0.066
0.051,0.3235,0.2725,-0.1875,-0.1105,0.2975,0.254,0.4115,0.7835,0.3655,0.4895,0.406,0.109,-0.054,-0.0675
0.044,0.3185,0.274,-0.1815,-0.1145,0.296,0.262,0.419,0.789,0.3705,0.4915,0.41,0.1065,-0.0515,-0.0715
0.0325,0.31,0.2775,-0.1715,-0.1225,0.294,0.266,0.4215,0.793,0.371,0.4905,0.409,0.101,-0.0605,-0.0715
0.036,0.3105,0.275,-0.173,-0.1195,0.2925,0.264,0.421,0.795,0.3745,0.49,0.408,0.1,-0.061,-0.072
0.024,0.306,0.282,-0.1645,-0.129,0.2935,0.2645,0.422,0.7945,0.372,0.4855,0.4005,0.095,-0.0545,-0.0735
0.022,0.318,0.296,-0.17,-0.1365,0.3065,0.273,0.431,0.8,0.374,0.486,0.4015,0.091,-0.052,-0.076
0.0245,0.333,0.308,-0.1785,-0.1415,0.32,0.2745,0.4375,0.8075,0.378,0.487,0.4035,0.0935,-0.046,-0.077
0.048,0.3355,0.2875,-0.1915,-0.1195,0.311,0.264,0.4295,0.7985,0.367,0.4745,0.3895,0.0925,-0.0425,-0.079
0.06,0.3375,0.2775,-0.199,-0.1085,0.3075,0.264,0.427,0.7955,0.364,0.469,0.3815,0.084,-0.047,-0.0875
0.0475,0.338,0.291,-0.193,-0.1215,0.3145,0.266,0.4265,0.798,0.364,0.47,0.379,0.082,-0.05,-0.0905
0.047,0.3435,0.2965,-0.1955,-0.1245,0.32,0.2665,0.4295,0.8005,0.3645,0.4695,0.3765,0.0855,-0.032,-0.0915
0.0345,0.348,0.3135,-0.191,-0.1395,0.3305,0.2725,0.43,0.8,0.3615,0.4645,0.371,0.08,-0.025,-0.092
0.039,0.353,0.314,-0.196,-0.137,0.333,0.273,0.4275,0.7955,0.3575,0.4615,0.367,0.077,-0.029,-0.093
0.0345,0.351,0.317,-0.193,-0.141,0.3335,0.2735,0.4275,0.7935,0.3555,0.46,0.366,0.077,-0.028,-0.093
0.0285,0.353,0.3245,-0.191,-0.148,0.3385,0.2765,0.4305,0.796,0.355,0.459,0.3645,0.0755,-0.0195,-0.0935
0.0335,0.3535,0.32,-0.1935,-0.143,0.3365,0.2745,0.4315,0.797,0.359,0.4615,0.365,0.074,-0.0265,-0.0955
0.0255,0.3465,0.321,-0.186,-0.1475,0.3335,0.2795,0.434,0.802,0.3645,0.4665,0.3665,0.073,-0.04,-0.0945
0.0295,0.346,0.3165,-0.1875,-0.1435,0.331,0.2825,0.4405,0.8085,0.3705,0.4725,0.371,0.079,-0.0345,-0.0965
0.032,0.3465,0.314,-0.1895,-0.141,0.33,0.2855,0.4445,0.8125,0.3755,0.477,0.3765,0.0815,-0.027,-0.0995
0.025,0.3455,0.3205,-0.1855,-0.1475,0.333,0.2905,0.4465,0.813,0.3765,0.4765,0.3785,0.079,-0.028,-0.1005
0.0235,0.3465,0.323,-0.185,-0.1495,0.3345,0.291,0.449,0.8165,0.379,0.4805,0.383,0.085,-0.0435,-0.098
0.0295,0.346,0.3165,-0.188,-0.1435,0.331,0.2945,0.454,0.822,0.384,0.485,0.3885,0.085,-0.045,-0.0985
0.051,0.338,0.287,-0.1945,-0.1175,0.312,0.2865,0.4465,0.8085,0.368,0.472,0.38,0.085,-0.037,-0.096
0.0465,0.3345,0.288,-0.1905,-0.1205,0.311,0.292,0.4485,0.8065,0.36,0.4675,0.3785,0.0835,-0.0395,-0.09
0.0355,0.338,0.303,-0.187,-0.1335,0.3205,0.298,0.4535,0.8085,0.3585,0.4645,0.38,0.078,-0.0435,-0.0925
0.036,0.342,0.306,-0.189,-0.1345,0.324,0.2965,0.4515,0.806,0.3525,0.4585,0.3795,0.082,-0.0385,-0.094
0.0185,0.352,0.3335,-0.1855,-0.1575,0.343,0.3045,0.455,0.8085,0.354,0.4585,0.3815,0.0785,-0.032,-0.096
0.0305,0.3565,0.3255,-0.1935,-0.147,0.3405,0.295,0.4435,0.796,0.345,0.449,0.3735,0.077,-0.026,-0.094
0.036,0.3495,0.3135,-0.1925,-0.1385,0.331,0.2865,0.435,0.7895,0.3395,0.4455,0.371,0.078,-0.018,-0.09
0.0135,0.353,0.3395,-0.183,-0.163,0.346,0.288,0.442,0.795,0.3445,0.45,0.3745,0.077,-0.014,-0.089
0.007,0.36,0.3525,-0.1835,-0.1725,0.356,0.285,0.4375,0.789,0.3395,0.445,0.37,0.0765,-0.0115,-0.084
0.0125,0.366,0.3535,-0.1895,-0.17,0.3595,0.2875,0.436,0.787,0.336,0.4435,0.369,0.076,-0.0075,-0.0845
0.0115,0.371,0.3595,-0.1915,-0.1735,0.365,0.2935,0.4385,0.7875,0.335,0.443,0.3715,0.074,-0.004,-0.083
0.014,0.3675,0.3535,-0.191,-0.1695,0.3605,0.29,0.43,0.774,0.32,0.427,0.361,0.0665,-0.003,-0.077
0.0515,0.372,0.3205,-0.212,-0.134,0.346,0.2795,0.4195,0.76,0.305,0.4135,0.349,0.0655,-0.0025,-0.074
0.065,0.3705,0.3055,-0.218,-0.12,0.338,0.2765,0.4135,0.7515,0.296,0.403,0.34,0.061,0.0,-0.0725
0.039,0.3615,0.3225,-0.2005,-0.1415,0.342,0.2805,0.4115,0.7515,0.294,0.399,0.3405,0.055,-0.001,-0.0645
0.021,0.365,0.3435,-0.193,-0.161,0.354,0.294,0.416,0.756,0.3005,0.404,0.3465,0.0485,0.0,-0.0685
0.017,0.364,0.3475,-0.1905,-0.165,0.3555,0.297,0.418,0.754,0.3005,0.4045,0.3505,0.048,0.0005,-0.0715
0.0225,0.362,0.3395,-0.1925,-0.1585,0.3505,0.2835,0.406,0.744,0.2935,0.4005,0.351,0.05,-0.0075,-0.061
0.025,0.3685,0.3435,-0.1965,-0.159,0.356,0.285,0.402,0.74,0.2895,0.398,0.349,0.0445,-0.011,-0.062
0.025,0.373,0.348,-0.199,-0.1615,0.3605,0.2885,0.398,0.7355,0.2865,0.3965,0.352,0.045,0.0025,-0.0625
0.019,0.3735,0.355,-0.1965,-0.1675,0.364,0.281,0.396,0.7325,0.2845,0.395,0.3565,0.048,0.0155,-0.059
0.019,0.3775,0.359,-0.198,-0.17,0.368,0.2795,0.3935,0.7285,0.2795,0.3915,0.3545,0.048,0.0195,-0.063
0.0255,0.379,0.3535,-0.2025,-0.164,0.366,0.2685,0.375,0.707,0.261,0.3765,0.3455,0.042,0.0215,-0.059
0.026,0.383,0.3575,-0.2045,-0.1655,0.37,0.252,0.362,0.692,0.247,0.368,0.344,0.0395,0.0195,-0.0465
0.017,0.391,0.374,-0.204,-0.1785,0.3825,0.261,0.3575,0.6855,0.241,0.3665,0.344,0.04,0.0195,-0.0475
0.0115,0.395,0.3835,-0.203,-0.186,0.389,0.26,0.3495,0.6755,0.2285,0.358,0.3405,0.0325,0.0255,-0.046
0.016,0.4045,0.389,-0.21,-0.1865,0.3965,0.2535,0.3435,0.6675,0.2185,0.3555,0.3425,0.0315,0.033,-0.039
0.0085,0.4075,0.3985,-0.208,-0.195,0.403,0.253,0.3385,0.6615,0.212,0.352,0.345,0.0305,0.042,-0.038
0.005,0.4085,0.4035,-0.2065,-0.199,0.4055,0.2485,0.331,0.6545,0.206,0.3455,0.342,0.026,0.0505,-0.0365
0.011,0.4145,0.4035,-0.213,-0.196,0.4085,0.243,0.3205,0.6425,0.197,0.3405,0.342,0.0265,0.0455,-0.033
0.0045,0.418,0.4135,-0.2115,-0.204,0.4155,0.237,0.3085,0.631,0.185,0.3345,0.3425,0.024,0.053,-0.026
0.001,0.42,0.419,-0.2105,-0.209,0.419,0.239,0.307,0.628,0.1865,0.34,0.352,0.027,0.0605,-0.024
0.003,0.4085,0.4055,-0.206,-0.201,0.407,0.2435,0.306,0.627,0.1875,0.346,0.3625,0.029,0.0515,-0.022
0.003,0.405,0.402,-0.204,-0.1995,0.4035,0.2425,0.302,0.6225,0.1835,0.345,0.364,0.028,0.043,-0.015
0.0085,0.409,0.4005,-0.209,-0.196,0.4045,0.237,0.2925,0.614,0.18,0.343,0.367,0.029,0.045,-0.0115
0.014,0.411,0.397,-0.2125,-0.191,0.4035,0.231,0.28,0.602,0.1715,0.339,0.368,0.031,0.0505,-0.007
0.0175,0.4135,0.3965,-0.2155,-0.1895,0.4045,0.228,0.276,0.596,0.167,0.338,0.371,0.036,0.045,-0.0015
0.0125,0.409,0.3965,-0.211,-0.1915,0.4025,0.231,0.2705,0.5915,0.165,0.3375,0.372,0.0315,0.0495,0.0
0.009,0.408,0.399,-0.2085,-0.1945,0.4035,0.231,0.2645,0.585,0.1635,0.339,0.3755,0.031,0.0485,0.003
0.015,0.4125,0.3975,-0.214,-0.191,0.405,0.2285,0.2635,0.582,0.161,0.3375,0.3795,0.0345,0.0445,0.008
0.016,0.4165,0.4005,-0.216,-0.192,0.4085,0.2285,0.2575,0.574,0.154,0.3345,0.3805,0.0355,0.0565,0.01
0.006,0.4255,0.4195,-0.216,-0.2065,0.422,0.229,0.249,0.567,0.1495,0.3335,0.3835,0.0315,0.0635,0.009
0.0045,0.4345,0.4295,-0.2195,-0.2125,0.432,0.227,0.24,0.556,0.138,0.325,0.3795,0.0245,0.065,0.011
0.003,0.4375,0.435,-0.2205,-0.2155,0.436,0.22,0.2245,0.537,0.1205,0.316,0.3755,0.023,0.0715,0.02
-0.0065,0.4495,0.4565,-0.2215,-0.2315,0.453,0.2095,0.209,0.5245,0.1095,0.308,0.376,0.017,0.082,0.0275
-0.014,0.455,0.469,-0.2205,-0.2415,0.462,0.2065,0.2005,0.513,0.099,0.3025,0.3725,0.0155,0.0935,0.032
-0.0075,0.4625,0.4695,-0.2275,-0.238,0.466,0.201,0.1975,0.509,0.098,0.304,0.3755,0.0165,0.0965,0.0365
0.008,0.4625,0.4545,-0.2355,-0.223,0.4585,0.185,0.183,0.4965,0.0875,0.296,0.3715,0.0205,0.0875,0.046
0.02,0.459,0.4385,-0.2395,-0.209,0.4485,0.172,0.1635,0.474,0.0675,0.2795,0.3595,0.0175,0.09,0.0515
0.0185,0.4675,0.449,-0.243,-0.215,0.458,0.172,0.1615,0.4715,0.0665,0.279,0.3635,0.015,0.0965,0.051
0.0205,0.462,0.4415,-0.241,-0.21,0.4515,0.164,0.148,0.4575,0.055,0.2715,0.355,0.0145,0.0985,0.0585
0.0315,0.46,0.428,-0.2455,-0.198,0.444,0.1575,0.1365,0.4415,0.043,0.26,0.345,0.0065,0.102,0.064
-0.001,0.463,0.4635,-0.231,-0.232,0.463,0.17,0.142,0.448,0.05,0.2705,0.3595,0.008,0.1,0.0685
-0.02,0.4535,0.473,-0.2165,-0.2465,0.463,0.166,0.1335,0.439,0.041,0.2645,0.3575,0.004,0.0995,0.074
-0.0215,0.441,0.463,-0.21,-0.242,0.452,0.1625,0.124,0.4255,0.0295,0.2545,0.353,-0.0015,0.0855,0.081
-0.018,0.446,0.464,-0.214,-0.241,0.455,0.165,0.1245,0.4255,0.032,0.2595,0.362,0.002,0.075,0.084
-0.008,0.448,0.456,-0.22,-0.232,0.452,0.1595,0.118,0.4175,0.0265,0.257,0.362,0.002,0.076,0.0865
-0.001,0.4385,0.44,-0.2185,-0.22,0.439,0.1535,0.1025,0.4045,0.017,0.2505,0.36,0.001,0.0765,0.0915
0.037,0.4455,0.4085,-0.2415,-0.185,0.4265,0.146,0.0915,0.3935,0.008,0.24,0.35,-0.001,0.0835,0.0865
0.0415,0.4505,0.409,-0.246,-0.1835,0.4295,0.1435,0.0855,0.388,0.0035,0.2385,0.348,-0.003,0.0805,0.0865
0.011,0.4425,0.4315,-0.2265,-0.2105,0.437,0.153,0.088,0.3925,0.011,0.2465,0.358,-0.006,0.0695,0.0895
0.0065,0.4435,0.437,-0.225,-0.2155,0.4405,0.146,0.082,0.385,0.0065,0.241,0.3555,-0.0075,0.072,0.095
-0.003,0.436,0.439,-0.2165,-0.221,0.437,0.1425,0.074,0.379,0.0035,0.241,0.3555,-0.0075,0.0785,0.0985
-0.0105,0.4295,0.44,-0.2095,-0.225,0.4345,0.143,0.071,0.3775,0.0025,0.2435,0.357,-0.0115,0.0735,0.1005
-0.0035,0.436,0.4395,-0.2165,-0.221,0.4375,0.132,0.062,0.3655,-0.0105,0.234,0.352,-0.011,0.075,0.107
-0.0055,0.433,0.4385,-0.2135,-0.2215,0.435,0.1325,0.054,0.3575,-0.0165,0.2325,0.349,-0.0095,0.0745,0.1065
0.017,0.446,0.429,-0.2315,-0.206,0.4375,0.1145,0.0455,0.3495,-0.0235,0.231,0.3475,-0.002,0.076,0.113
0.014,0.447,0.4335,-0.2305,-0.2095,0.44,0.111,0.0415,0.3465,-0.027,0.225,0.3445,-0.0065,0.082,0.1155
0.0015,0.44,0.4385,-0.221,-0.2185,0.439,0.114,0.0385,0.345,-0.0285,0.2225,0.3385,-0.0165,0.0755,0.1125
0.005,0.444,0.439,-0.2245,-0.2165,0.4415,0.1045,0.034,0.34,-0.0315,0.2195,0.335,-0.0135,0.0805,0.114
-0.0145,0.4385,0.453,-0.212,-0.2335,0.4455,0.1105,0.0325,0.342,-0.0285,0.2215,0.3365,-0.0175,0.092,0.1125
-0.02,0.44,0.46,-0.21,-0.24,0.4495,0.1145,0.032,0.344,-0.0255,0.2245,0.3365,-0.0205,0.088,0.113
-0.0205,0.438,0.4585,-0.2085,-0.239,0.448,0.113,0.029,0.3415,-0.026,0.2245,0.334,-0.026,0.084,0.114
-0.0195,0.4375,0.457,-0.209,-0.238,0.447,0.1125,0.0255,0.338,-0.0285,0.2245,0.3375,-0.0275,0.075,0.114
-0.0195,0.4325,0.4515,-0.2065,-0.2355,0.4415,0.1065,0.0205,0.3305,-0.0325,0.2255,0.34,-0.0205,0.069,0.1205
-0.0125,0.4275,0.44,-0.2075,-0.226,0.4335,0.0975,0.014,0.323,-0.0395,0.2205,0.3325,-0.0275,0.072,0.1245
-0.009,0.4255,0.435,-0.208,-0.2215,0.43,0.101,0.0125,0.319,-0.0425,0.216,0.3295,-0.032,0.0635,0.1225
-0.0185,0.4185,0.437,-0.2,-0.2275,0.4275,0.0985,0.0115,0.3165,-0.0435,0.218,0.331,-0.0285,0.055,0.129
-0.0095,0.4195,0.429,-0.205,-0.219,0.424,0.0945,0.0105,0.318,-0.041,0.221,0.3355,-0.027,0.051,0.132
-0.0075,0.417,0.4245,-0.2045,-0.216,0.4205,0.0985,0.014,0.321,-0.036,0.2245,0.341,-0.024,0.053,0.1335
-0.0175,0.4045,0.422,-0.1935,-0.2195,0.413,0.0955,0.011,0.318,-0.0405,0.222,0.337,-0.0245,0.052,0.1385
-0.025,0.399,0.4235,-0.187,-0.224,0.411,0.096,0.005,0.311,-0.0475,0.217,0.3345,-0.0255,0.054,0.1405
-0.017,0.4085,0.425,-0.196,-0.2205,0.4165,0.0915,0.0045,0.312,-0.047,0.2185,0.339,-0.0175,0.051,0.1455
-0.0145,0.4085,0.423,-0.197,-0.2185,0.416,0.0915,0.003,0.312,-0.048,0.2195,0.3415,-0.016,0.046,0.1455
-0.0245,0.408,0.433,-0.192,-0.2285,0.42,0.093,0.0,0.308,-0.053,0.215,0.338,-0.0195,0.06,0.1425
-0.0145,0.4145,0.429,-0.2,-0.2215,0.4215,0.085,0.0,0.308,-0.0535,0.213,0.3355,-0.0165,0.058,0.142
-0.012,0.4175,0.429,-0.203,-0.22,0.423,0.084,0.001,0.3085,-0.052,0.217,0.338,-0.014,0.0585,0.143
-0.016,0.4225,0.4385,-0.203,-0.227,0.43,0.082,-0.0025,0.3085,-0.0505,0.221,0.337,-0.012,0.0635,0.1455
-0.009,0.422,0.431,-0.2065,-0.22,0.4265,0.0795,-0.009,0.3065,-0.0495,0.221,0.3355,-0.0155,0.0585,0.141
-0.003,0.425,0.428,-0.211,-0.2155,0.4265,0.0825,-0.001,0.313,-0.043,0.2235,0.3385,-0.011,0.061,0.136
-0.019,0.418,0.437,-0.1995,-0.228,0.4275,0.08,0.0,0.3115,-0.045,0.2195,0.3335,-0.013,0.0615,0.1365
-0.025,0.413,0.4385,-0.194,-0.2315,0.4255,0.0725,-0.0135,0.3005,-0.0515,0.2145,0.33,-0.0205,0.057,0.1425
-0.0085,0.4255,0.434,-0.2085,-0.221,0.4295,0.072,-0.007,0.308,-0.0425,0.2235,0.3385,-0.015,0.0535,0.142
-0.004,0.4255,0.43,-0.2105,-0.217,0.4275,0.0705,-0.0075,0.3085,-0.043,0.223,0.34,-0.0115,0.058,0.1425
-0.012,0.41,0.422,-0.199,-0.2165,0.416,0.068,-0.0145,0.3005,-0.0515,0.2155,0.334,-0.0165,0.0555,0.146
-0.0195,0.4,0.4195,-0.1905,-0.219,0.4095,0.0715,-0.013,0.2995,-0.0525,0.214,0.33,-0.02,0.0455,0.1455
-0.014,0.403,0.417,-0.1945,-0.2155,0.41,0.0755,-0.0135,0.298,-0.055,0.2115,0.329,-0.022,0.043,0.1475
-0.013,0.4005,0.4135,-0.194,-0.213,0.407,0.081,-0.0075,0.304,-0.051,0.214,0.331,-0.0245,0.045,0.144
-0.019,0.393,0.4115,-0.187,-0.215,0.402,0.081,-0.0035,0.308,-0.046,0.219,0.3335,-0.0235,0.0435,0.142
-0.014,0.388,0.402,-0.187,-0.208,0.3945,0.0765,-0.006,0.305,-0.046,0.22,0.3335,-0.0235,0.042,0.1465
-0.008,0.3845,0.3925,-0.1885,-0.2,0.3885,0.078,-0.0045,0.3085,-0.0415,0.2235,0.3345,-0.0195,0.035,0.148
-0.002,0.3875,0.3895,-0.1925,-0.1955,0.388,0.0785,-0.003,0.312,-0.041,0.222,0.334,-0.0165,0.021,0.1495
0.002,0.3955,0.3935,-0.1985,-0.1955,0.394,0.0785,0.0005,0.315,-0.0375,0.2245,0.3365,-0.018,0.028,0.1445
-0.0005,0.3955,0.3955,-0.197,-0.198,0.3955,0.0775,-0.003,0.314,-0.038,0.2255,0.336,-0.016,0.035,0.144
0.0035,0.396,0.392,-0.1995,-0.194,0.3935,0.075,-0.003,0.3155,-0.0375,0.2285,0.3425,-0.0115,0.036,0.1465
-0.0095,0.3905,0.4,-0.1905,-0.2045,0.395,0.0795,0.0025,0.319,-0.0325,0.2335,0.35,-0.011,0.029,0.146
-0.0265,0.39,0.4165,-0.1815,-0.2215,0.403,0.0795,0.0015,0.3175,-0.036,0.2295,0.3475,-0.0135,0.0385,0.1455
-0.034,0.3975,0.431,-0.1815,-0.2325,0.414,0.081,0.0025,0.3195,-0.0365,0.23,0.348,-0.015,0.0505,0.1445
-0.0335,0.396,0.4295,-0.181,-0.231,0.4125,0.0785,0.0005,0.316,-0.037,0.2285,0.3455,-0.013,0.043,0.1465
-0.0265,0.4,0.4265,-0.1865,-0.2265,0.413,0.0765,-0.0015,0.3135,-0.0385,0.2295,0.343,-0.0105,0.044,0.142
0.0005,0.397,0.3965,-0.1985,-0.198,0.3965,0.0665,-0.012,0.307,-0.0455,0.225,0.3375,-0.0065,0.0355,0.14
0.0195,0.399,0.379,-0.209,-0.1795,0.3885,0.0575,-0.013,0.3075,-0.0435,0.225,0.3365,-0.002,0.04,0.142
-0.0145,0.402,0.4165,-0.1935,-0.2155,0.409,0.074,0.002,0.3225,-0.0275,0.2405,0.3465,-0.0035,0.043,0.136
-0.035,0.3985,0.4335,-0.1815,-0.234,0.4155,0.0825,0.0065,0.326,-0.023,0.244,0.349,-0.004,0.0405,0.136
-0.0255,0.396,0.421,-0.185,-0.223,0.408,0.0795,0.008,0.326,-0.0225,0.243,0.345,-0.0055,0.039,0.1385
-0.001,0.394,0.395,-0.1965,-0.198,0.3945,0.0705,0.002,0.3215,-0.025,0.239,0.3395,-0.0035,0.0385,0.137
0.013,0.4015,0.3885,-0.2075,-0.1875,0.395,0.0725,0.0015,0.322,-0.022,0.244,0.342,0.0,0.0395,0.1365
0.03,0.4025,0.3725,-0.216,-0.171,0.387,0.0705,0.0015,0.3225,-0.0205,0.247,0.343,0.0055,0.0285,0.138
0.0145,0.3935,0.379,-0.204,-0.182,0.386,0.068,0.002,0.324,-0.019,0.248,0.3455,0.007,0.0275,0.138
-0.0185,0.3915,0.4095,-0.1865,-0.214,0.4005,0.081,0.0115,0.335,-0.0085,0.257,0.354,0.0045,0.026,0.141
-0.026,0.3905,0.4165,-0.1825,-0.221,0.4035,0.0895,0.022,0.346,0.0015,0.2645,0.36,0.003,0.0255,0.1395
-0.0295,0.3875,0.417,-0.179,-0.223,0.402,0.0915,0.0245,0.349,0.0,0.2635,0.3575,0.002,0.032,0.138
-0.007,0.389,0.396,-0.191,-0.2015,0.392,0.086,0.0135,0.335,-0.0145,0.2475,0.3435,0.0015,0.0295,0.141
-0.0215,0.387,0.4085,-0.1825,-0.215,0.3975,0.0875,0.015,0.335,-0.0165,0.2435,0.341,-0.006,0.033,0.138
0.0035,0.3945,0.391,-0.199,-0.1935,0.3925,0.0705,0.002,0.325,-0.028,0.23,0.3275,-0.0105,0.0365,0.1395
0.034,0.398,0.364,-0.216,-0.1645,0.3805,0.059,-0.01,0.312,-0.042,0.216,0.3125,-0.011,0.0335,0.138
0.003,0.393,0.3895,-0.198,-0.193,0.391,0.0705,0.0,0.3225,-0.033,0.226,0.325,-0.006,0.029,0.138
-0.003,0.398,0.401,-0.1975,-0.2015,0.3995,0.071,0.0065,0.3265,-0.026,0.233,0.3295,-0.0055,0.0315,0.1395
0.003,0.403,0.4,-0.203,-0.1985,0.401,0.0675,0.009,0.329,-0.0255,0.2345,0.325,-0.0055,0.0435,0.1365
0.003,0.41,0.407,-0.2065,-0.202,0.4085,0.067,0.0025,0.3265,-0.0255,0.2345,0.3275,-0.0015,0.0425,0.1365
-0.003,0.4165,0.4195,-0.207,-0.211,0.418,0.0685,0.0035,0.3295,-0.019,0.2405,0.3315,-0.002,0.0475,0.1315
0.0075,0.4175,0.4095,-0.2125,-0.2005,0.4135,0.0665,0.0025,0.3295,-0.02,0.236,0.329,-0.001,0.046,0.1335
0.007,0.416,0.409,-0.212,-0.2005,0.4125,0.065,-0.002,0.321,-0.026,0.228,0.324,-0.0035,0.036,0.1355
0.0025,0.415,0.413,-0.209,-0.205,0.414,0.07,0.0035,0.324,-0.0235,0.2315,0.324,-0.0075,0.048,0.1325
0.0,0.4075,0.408,-0.204,-0.2035,0.4075,0.075,0.004,0.324,-0.022,0.233,0.328,-0.006,0.052,0.1355
-0.0085,0.4015,0.41,-0.1965,-0.209,0.4055,0.0715,0.003,0.322,-0.0225,0.231,0.3255,-0.0055,0.042,0.138
-0.011,0.398,0.409,-0.1935,-0.2095,0.403,0.069,-0.0005,0.3195,-0.0245,0.231,0.3205,-0.0125,0.0355,0.1375
-0.016,0.395,0.411,-0.189,-0.2135,0.4025,0.0765,0.002,0.3215,-0.02,0.2375,0.3245,-0.0145,0.033,0.1345
-0.014,0.3945,0.408,-0.19,-0.2105,0.401,0.076,0.0115,0.331,-0.0125,0.2445,0.332,-0.005,0.0275,0.135
-0.011,0.3915,0.4025,-0.19,-0.2065,0.3965,0.077,0.0125,0.334,-0.0095,0.249,0.3345,-0.0005,0.0225,0.1365
-0.0195,0.391,0.4105,-0.1855,-0.215,0.4005,0.084,0.016,0.334,-0.0095,0.2505,0.338,-0.0065,0.014,0.1355
-0.0175,0.3845,0.4025,-0.1835,-0.21,0.393,0.0795,0.012,0.3335,-0.013,0.245,0.335,-0.0075,0.0105,0.1355
-0.002,0.387,0.3885,-0.1925,-0.195,0.3875,0.0785,0.0065,0.3255,-0.0215,0.2335,0.325,-0.0085,0.016,0.136
0.0005,0.393,0.3925,-0.197,-0.1955,0.3925,0.077,0.006,0.3215,-0.026,0.234,0.326,-0.0095,0.011,0.1355
-0.0035,0.4025,0.406,-0.1995,-0.2045,0.404,0.0725,0.003,0.326,-0.018,0.2405,0.3285,-0.0065,0.026,0.1315
-0.0095,0.4115,0.421,-0.201,-0.215,0.416,0.073,0.0035,0.3235,-0.021,0.2395,0.3295,-0.004,0.045,0.1345
-0.0185,0.4065,0.425,-0.194,-0.2215,0.4155,0.075,0.003,0.3205,-0.024,0.24,0.3335,-0.0035,0.0485,0.1365
-0.019,0.408,0.427,-0.1945,-0.223,0.4175,0.0755,0.001,0.318,-0.0255,0.2365,0.332,-0.006,0.056,0.137
-0.0185,0.407,0.4255,-0.1945,-0.2215,0.416,0.0715,0.002,0.319,-0.026,0.2385,0.3335,-0.001,0.0435,0.1445
-0.014,0.3995,0.4135,-0.193,-0.2135,0.4065,0.067,-0.0015,0.316,-0.035,0.2295,0.326,-0.003,0.042,0.1445
-0.0115,0.394,0.405,-0.1915,-0.208,0.3995,0.061,-0.0075,0.3055,-0.047,0.2155,0.3175,-0.007,0.05,0.1485
-0.0225,0.392,0.4145,-0.1845,-0.2185,0.403,0.067,-0.004,0.309,-0.0425,0.2205,0.325,-0.01,0.0435,0.149
-0.014,0.3935,0.4075,-0.1895,-0.2105,0.4,0.068,0.001,0.3115,-0.041,0.2195,0.324,-0.0115,0.043,0.146
-0.001,0.387,0.3885,-0.193,-0.1945,0.3875,0.0615,0.001,0.3115,-0.038,0.2235,0.327,-0.0015,0.0325,0.1465
-0.0055,0.3865,0.392,-0.1905,-0.1985,0.389,0.0725,0.005,0.3155,-0.0335,0.231,0.333,-0.004,0.0265,0.1465
-0.0125,0.393,0.4055,-0.19,-0.2085,0.3985,0.083,0.0135,0.3265,-0.025,0.238,0.337,-0.003,0.033,0.146
-0.01,0.3965,0.4065,-0.193,-0.208,0.401,0.079,0.0175,0.332,-0.018,0.246,0.347,0.006,0.024,0.148
-0.019,0.3935,0.4125,-0.1875,-0.2155,0.403,0.0785,0.0175,0.3305,-0.0165,0.2465,0.3465,0.0035,0.0215,0.1475
-0.0195,0.387,0.4065,-0.1835,-0.213,0.3965,0.078,0.007,0.322,-0.024,0.2375,0.336,-0.003,0.0225,0.147
0.0035,0.3905,0.387,-0.197,-0.1915,0.3885,0.0685,0.002,0.3155,-0.03,0.2305,0.3325,-0.0005,0.02,0.152
0.002,0.3965,0.3945,-0.199,-0.196,0.395,0.0715,0.006,0.3205,-0.026,0.2335,0.338,-0.0005,0.0275,0.15
-0.006,0.398,0.4035,-0.196,-0.2045,0.4005,0.073,0.0035,0.319,-0.0285,0.2335,0.336,-0.009,0.0305,0.149
-0.0155,0.3965,0.4115,-0.1905,-0.213,0.4035,0.0675,0.002,0.321,-0.027,0.2335,0.334,-0.01,0.0325,0.1495
-0.0175,0.3955,0.4125,-0.189,-0.215,0.4035,0.071,0.005,0.324,-0.024,0.2345,0.332,-0.011,0.0315,0.1475
-0.007,0.4045,0.4115,-0.199,-0.209,0.4075,0.067,0.0045,0.323,-0.0235,0.234,0.329,-0.008,0.031,0.1485
-0.01,0.4095,0.4195,-0.2,-0.215,0.4145,0.0665,-0.002,0.3195,-0.0285,0.229,0.324,-0.012,0.032,0.145
-0.013,0.4085,0.4215,-0.198,-0.217,0.415,0.071,-0.004,0.315,-0.0355,0.2205,0.3155,-0.0165,0.0355,0.1435
-0.0095,0.411,0.42,-0.201,-0.2145,0.4155,0.0665,-0.0035,0.3155,-0.034,0.22,0.3155,-0.0135,0.0445,0.143
-0.013,0.404,0.417,-0.1955,-0.215,0.4105,0.067,-0.0065,0.313,-0.036,0.22,0.314,-0.018,0.044,0.1435
-0.0115,0.3965,0.4085,-0.1925,-0.2095,0.402,0.0635,-0.0105,0.3065,-0.043,0.214,0.309,-0.0205,0.0305,0.149
-0.0035,0.4015,0.405,-0.199,-0.204,0.403,0.0615,-0.0125,0.3045,-0.044,0.2155,0.311,-0.0205,0.028,0.149
-0.014,0.408,0.4215,-0.197,-0.2175,0.4145,0.0645,-0.01,0.307,-0.0385,0.223,0.3155,-0.022,0.049,0.146
-0.0235,0.4135,0.4375,-0.195,-0.23,0.4255,0.0675,-0.004,0.3155,-0.0285,0.233,0.324,-0.0205,0.049,0.1435
-0.0245,0.413,0.438,-0.194,-0.231,0.4255,0.066,-0.004,0.3175,-0.0275,0.2365,0.328,-0.0215,0.04,0.143
-0.0375,0.4025,0.44,-0.1825,-0.2385,0.421,0.0655,-0.005,0.315,-0.03,0.2355,0.3285,-0.022,0.041,0.145
-0.038,0.404,0.442,-0.183,-0.2395,0.4225,0.0705,-0.0035,0.3155,-0.0285,0.2385,0.3345,-0.021,0.0335,0.1435
-0.0345,0.404,0.4385,-0.185,-0.236,0.421,0.0675,-0.0025,0.316,-0.0255,0.241,0.337,-0.0165,0.03,0.1415
-0.0085,0.395,0.4035,-0.193,-0.206,0.399,0.0675,-0.003,0.316,-0.0265,0.239,0.335,-0.007,0.0255,0.14
0.018,0.389,0.371,-0.2035,-0.176,0.3795,0.0605,-0.011,0.309,-0.0315,0.2365,0.3315,-0.0025,0.023,0.1435
0.0095,0.386,0.3765,-0.1975,-0.1835,0.381,0.0585,-0.01,0.3115,-0.029,0.236,0.333,-0.001,0.0225,0.146
0.0035,0.3845,0.381,-0.194,-0.1885,0.3825,0.0655,-0.008,0.315,-0.0275,0.238,0.336,-0.003,0.023,0.147
-0.0005,0.3865,0.387,-0.1925,-0.194,0.3865,0.0705,-0.005,0.3175,-0.0235,0.244,0.341,-0.0045,0.023,0.147
-0.011,0.386,0.397,-0.1875,-0.204,0.3915,0.071,-0.0025,0.318,-0.0245,0.2435,0.3405,-0.0035,0.0195,0.149
-0.011,0.383,0.394,-0.186,-0.2025,0.3885,0.06,-0.008,0.31,-0.0345,0.237,0.334,-0.008,0.0245,0.156
-0.012,0.3885,0.4005,-0.188,-0.206,0.3945,0.0665,-0.0085,0.3105,-0.035,0.236,0.334,-0.012,0.0235,0.151
-0.025,0.3905,0.4155,-0.1825,-0.22,0.4025,0.072,-0.006,0.313,-0.0345,0.235,0.333,-0.0135,0.0325,0.1485
-0.0165,0.394,0.41,-0.1885,-0.213,0.4015,0.0625,-0.0095,0.3095,-0.038,0.23,0.329,-0.0115,0.0375,0.1535
-0.015,0.398,0.413,-0.1915,-0.2135,0.405,0.061,-0.012,0.307,-0.04,0.228,0.3275,-0.0125,0.0365,0.1525
-0.0015,0.4015,0.4025,-0.2,-0.202,0.4015,0.053,-0.019,0.303,-0.043,0.226,0.326,-0.0085,0.0365,0.1505
-0.0015,0.408,0.4095,-0.2035,-0.205,0.4085,0.0505,-0.0205,0.3055,-0.039,0.229,0.3295,-0.0055,0.0325,0.1495
-0.023,0.4075,0.4305,-0.192,-0.2265,0.4185,0.0565,-0.01,0.311,-0.0345,0.2345,0.337,-0.004,0.0345,0.1505
-0.0285,0.402,0.4305,-0.1865,-0.229,0.416,0.053,-0.0155,0.3055,-0.04,0.2295,0.336,-0.0085,0.0345,0.1525
-0.025,0.401,0.426,-0.188,-0.2255,0.4135,0.0525,-0.021,0.3015,-0.0435,0.2265,0.333,-0.0115,0.0375,0.154
-0.022,0.4065,0.4285,-0.192,-0.225,0.417,0.058,-0.0135,0.3085,-0.036,0.2345,0.3395,-0.005,0.035,0.153
-0.023,0.4005,0.424,-0.189,-0.2235,0.412,0.061,-0.014,0.3105,-0.0355,0.2355,0.3405,-0.008,0.031,0.1525
0.011,0.3935,0.3825,-0.202,-0.1855,0.388,0.057,-0.02,0.3025,-0.0465,0.224,0.328,-0.011,0.025,0.152
0.0055,0.389,0.3835,-0.1975,-0.1885,0.386,0.064,-0.0125,0.3085,-0.0425,0.2245,0.3295,-0.0125,0.0235,0.1505
-0.0245,0.383,0.4075,-0.1795,-0.2155,0.395,0.073,-0.003,0.3185,-0.0325,0.2335,0.34,-0.013,0.022,0.153
-0.022,0.3845,0.4065,-0.1815,-0.214,0.395,0.069,-0.005,0.318,-0.031,0.2355,0.3425,-0.0135,0.017,0.155
-0.0275,0.379,0.4065,-0.1755,-0.2165,0.3925,0.0645,-0.0075,0.315,-0.033,0.2355,0.346,-0.009,0.016,0.1575
-0.0235,0.3725,0.396,-0.1745,-0.2095,0.384,0.065,-0.008,0.311,-0.039,0.2305,0.342,-0.0105,0.019,0.1565
0.013,0.372,0.3595,-0.1925,-0.173,0.3655,0.0535,-0.022,0.2955,-0.0555,0.214,0.327,-0.016,0.02,0.16
0.0095,0.3785,0.3695,-0.194,-0.18,0.3735,0.049,-0.0235,0.2945,-0.0545,0.2165,0.331,-0.0095,0.0185,0.164
-0.0295,0.3795,0.4095,-0.175,-0.2195,0.3945,0.0585,-0.016,0.304,-0.047,0.225,0.337,-0.0115,0.0195,0.1615
-0.024,0.378,0.4015,-0.177,-0.2125,0.3895,0.051,-0.024,0.2965,-0.052,0.2205,0.333,-0.0105,0.0235,0.1625
-0.0045,0.392,0.3965,-0.1935,-0.2,0.3935,0.0585,-0.0165,0.307,-0.041,0.2315,0.3395,-0.006,0.029,0.153
-0.0135,0.3925,0.406,-0.189,-0.2095,0.399,0.0595,-0.0155,0.3085,-0.037,0.2355,0.339,-0.004,0.0285,0.1555
-0.019,0.384,0.4025,-0.1825,-0.2105,0.393,0.047,-0.025,0.2975,-0.046,0.228,0.334,-0.0045,0.0245,0.164
-0.005,0.394,0.399,-0.194,-0.202,0.396,0.0475,-0.022,0.3015,-0.043,0.2295,0.3365,-0.004,0.026,0.1615
-0.007,0.4,0.4075,-0.1965,-0.207,0.4035,0.0455,-0.023,0.301,-0.0425,0.229,0.335,-0.0025,0.0365,0.161
0.0065,0.403,0.397,-0.205,-0.195,0.4,0.0405,-0.0335,0.2915,-0.051,0.22,0.3275,-0.007,0.045,0.159
0.014,0.411,0.397,-0.213,-0.1915,0.404,0.035,-0.036,0.286,-0.056,0.215,0.325,-0.0055,0.0435,0.164
-0.0025,0.404,0.407,-0.201,-0.2045,0.4055,0.043,-0.0305,0.2905,-0.055,0.2175,0.328,-0.008,0.0345,0.167
0.0005,0.4015,0.401,-0.201,-0.2005,0.401,0.0465,-0.025,0.294,-0.052,0.223,0.3345,-0.008,0.033,0.166
-0.011,0.3935,0.4045,-0.191,-0.2075,0.3985,0.044,-0.027,0.2895,-0.0515,0.224,0.336,-0.0055,0.03,0.169
-0.0175,0.378,0.3955,-0.1805,-0.206,0.3865,0.049,-0.0315,0.2885,-0.05,0.2235,0.332,-0.0095,0.0225,0.169
-0.014,0.377,0.3915,-0.1815,-0.2025,0.384,0.052,-0.028,0.291,-0.047,0.225,0.3315,-0.0125,0.0275,0.167
-0.0165,0.376,0.3925,-0.1795,-0.2045,0.384,0.053,-0.024,0.2945,-0.0425,0.2275,0.334,-0.012,0.0195,0.1665
-0.011,0.3765,0.388,-0.183,-0.199,0.382,0.054,-0.0235,0.2945,-0.043,0.228,0.3335,-0.0135,0.0125,0.1665
-0.0215,0.373,0.3945,-0.1755,-0.2075,0.383,0.0615,-0.024,0.293,-0.046,0.2255,0.3305,-0.023,0.0205,0.1635
-0.026,0.3725,0.399,-0.173,-0.2125,0.3855,0.062,-0.024,0.2945,-0.043,0.228,0.331,-0.023,0.0215,0.1605
-0.0235,0.377,0.4005,-0.177,-0.212,0.3885,0.053,-0.0265,0.291,-0.044,0.2285,0.332,-0.0205,0.0195,0.163
-0.028,0.3815,0.4095,-0.1765,-0.219,0.395,0.048,-0.028,0.29,-0.046,0.226,0.3295,-0.0215,0.027,0.163
-0.0145,0.3925,0.407,-0.189,-0.211,0.3995,0.044,-0.0285,0.29,-0.0495,0.223,0.3245,-0.018,0.03,0.1625
-0.0085,0.4005,0.4085,-0.196,-0.208,0.404,0.037,-0.0325,0.285,-0.0535,0.2185,0.3245,-0.014,0.0315,0.1645
-0.023,0.3985,0.421,-0.1875,-0.222,0.4095,0.0385,-0.034,0.285,-0.0545,0.2195,0.3255,-0.012,0.0465,0.162
-0.021,0.3965,0.417,-0.1875,-0.219,0.4065,0.0425,-0.028,0.292,-0.0485,0.226,0.3315,-0.009,0.036,0.1625
-0.0165,0.3955,0.412,-0.1895,-0.214,0.4035,0.0405,-0.025,0.2955,-0.043,0.23,0.3365,-0.0065,0.0305,0.162
-0.022,0.3945,0.4165,-0.186,-0.219,0.405,0.038,-0.03,0.296,-0.044,0.231,0.3365,-0.0055,0.036,0.1625
-0.007,0.401,0.4085,-0.197,-0.2075,0.4045,0.0345,-0.037,0.2905,-0.046,0.2305,0.335,0.0005,0.037,0.165
0.01,0.4075,0.3975,-0.2085,-0.1935,0.4025,0.033,-0.034,0.291,-0.0425,0.236,0.3405,0.0115,0.046,0.162
0.0055,0.4085,0.403,-0.207,-0.1985,0.4055,0.031,-0.032,0.2945,-0.039,0.238,0.346,0.0165,0.042,0.1655
-0.009,0.4045,0.4135,-0.198,-0.211,0.4085,0.0355,-0.0305,0.2945,-0.0395,0.236,0.346,0.0115,0.043,0.1695
-0.016,0.4005,0.4165,-0.1925,-0.216,0.4085,0.042,-0.03,0.291,-0.0455,0.23,0.3445,0.0035,0.045,0.1705
-0.0085,0.3995,0.408,-0.1955,-0.208,0.4035,0.041,-0.035,0.2845,-0.0545,0.2235,0.343,0.0,0.0425,0.1745
-0.009,0.3955,0.405,-0.193,-0.2065,0.4,0.04,-0.036,0.2835,-0.0575,0.222,0.344,-0.001,0.0365,0.1775
-0.0065,0.3895,0.3965,-0.1915,-0.2015,0.393,0.04,-0.039,0.2815,-0.059,0.219,0.34,-0.0055,0.025,0.1795
-0.0095,0.386,0.3955,-0.1885,-0.202,0.3905,0.0425,-0.028,0.2905,-0.048,0.228,0.3445,-0.0045,0.0275,0.1755
-0.0185,0.3855,0.404,-0.184,-0.211,0.3945,0.051,-0.0215,0.3,-0.04,0.2375,0.35,-0.0025,0.033,0.1685
-0.0075,0.385,0.3925,-0.1885,-0.1995,0.3885,0.0505,-0.026,0.2985,-0.0395,0.2385,0.3495,-0.001,0.029,0.1665
-0.004,0.3795,0.384,-0.1875,-0.194,0.3815,0.0425,-0.025,0.299,-0.038,0.239,0.35,0.0035,0.02,0.169
-0.005,0.371,0.376,-0.183,-0.19,0.3735,0.0395,-0.029,0.293,-0.044,0.2335,0.343,0.002,0.014,0.1705
0.0,0.373,0.373,-0.1865,-0.1865,0.373,0.0395,-0.0325,0.2915,-0.045,0.232,0.341,-0.0005,0.019,0.1655
-0.012,0.382,0.3945,-0.185,-0.203,0.388,0.044,-0.0305,0.2955,-0.0425,0.2355,0.346,-0.0035,0.0285,0.163
-0.017,0.386,0.403,-0.185,-0.2095,0.3945,0.0385,-0.0365,0.2875,-0.0505,0.227,0.3395,-0.0075,0.0335,0.1635
-0.009,0.3925,0.4015,-0.192,-0.205,0.3965,0.036,-0.0405,0.2855,-0.0545,0.2235,0.3355,-0.0115,0.033,0.161
-0.0045,0.392,0.3965,-0.194,-0.2005,0.394,0.034,-0.0375,0.287,-0.0535,0.227,0.3405,-0.0055,0.0285,0.1635
-0.0115,0.3835,0.395,-0.186,-0.203,0.389,0.032,-0.039,0.2865,-0.0525,0.226,0.3405,-0.003,0.025,0.165
-0.0205,0.3845,0.405,-0.182,-0.2125,0.3945,0.0355,-0.038,0.2875,-0.052,0.228,0.3425,-0.007,0.029,0.1645
-0.018,0.387,0.405,-0.1845,-0.2115,0.3955,0.038,-0.035,0.29,-0.05,0.23,0.343,-0.004,0.026,0.165
-0.0135,0.3895,0.403,-0.188,-0.208,0.396,0.043,-0.0315,0.297,-0.044,0.2345,0.344,-0.005,0.025,0.1605
0.011,0.3885,0.3775,-0.2,-0.183,0.3825,0.0305,-0.0385,0.2855,-0.055,0.225,0.3375,-0.007,0.0235,0.164
0.0095,0.3835,0.3745,-0.1965,-0.1825,0.379,0.0325,-0.042,0.2815,-0.0585,0.2205,0.334,-0.0075,0.021,0.165
-0.0095,0.3895,0.399,-0.19,-0.204,0.394,0.0425,-0.0305,0.2945,-0.0455,0.2325,0.3425,-0.0075,0.025,0.161
-0.012,0.3855,0.398,-0.187,-0.2045,0.3915,0.037,-0.0365,0.29,-0.0465,0.23,0.343,-0.012,0.0265,0.164
-0.011,0.3925,0.4035,-0.1905,-0.207,0.398,0.041,-0.034,0.2915,-0.0445,0.2305,0.3445,-0.0115,0.0305,0.164
-0.0015,0.3995,0.4005,-0.199,-0.201,0.4,0.039,-0.0295,0.297,-0.0405,0.232,0.344,-0.0075,0.0235,0.1605
-0.0105,0.39,0.4005,-0.19,-0.205,0.395,0.0455,-0.033,0.295,-0.0425,0.23,0.3425,-0.014,0.031,0.1575
-0.0125,0.388,0.4,-0.1875,-0.206,0.3935,0.051,-0.0295,0.2985,-0.039,0.236,0.3455,-0.0115,0.0305,0.1565
-0.0085,0.3915,0.4,-0.1915,-0.204,0.3955,0.044,-0.029,0.3005,-0.0365,0.2375,0.3505,-0.006,0.022,0.158
-0.0025,0.403,0.406,-0.2005,-0.204,0.4045,0.045,-0.027,0.2995,-0.039,0.2375,0.35,-0.0065,0.0235,0.157
-0.002,0.4065,0.4085,-0.202,-0.2055,0.4075,0.0445,-0.029,0.299,-0.042,0.2355,0.3465,-0.004,0.0245,0.158
-0.0045,0.4185,0.423,-0.207,-0.2135,0.4205,0.049,-0.022,0.307,-0.0325,0.2405,0.352,-0.0005,0.035,0.158
-0.002,0.424,0.426,-0.211,-0.214,0.425,0.051,-0.018,0.313,-0.0275,0.2475,0.3545,0.0,0.0385,0.1545
-0.0075,0.431,0.439,-0.2115,-0.223,0.4345,0.049,-0.0185,0.3145,-0.0245,0.2505,0.355,-0.0025,0.054,0.149
-0.0045,0.4465,0.4515,-0.221,-0.2275,0.449,0.0535,-0.0165,0.319,-0.0175,0.2565,0.357,-0.0035,0.072,0.14
-0.0195,0.443,0.4625,-0.212,-0.241,0.453,0.0615,-0.0125,0.3245,-0.0135,0.2625,0.363,-0.003,0.0715,0.137
-0.0015,0.444,0.446,-0.221,-0.2235,0.445,0.0555,-0.014,0.321,-0.015,0.2645,0.3625,0.005,0.0795,0.138
0.0215,0.4505,0.429,-0.236,-0.2035,0.4395,0.051,-0.0185,0.3195,-0.015,0.268,0.363,0.0105,0.0925,0.1315
-0.006,0.4545,0.46,-0.2245,-0.2325,0.457,0.0575,-0.0085,0.3285,-0.0055,0.276,0.3685,0.009,0.0795,0.1295
-0.0245,0.4525,0.4765,-0.214,-0.2505,0.4645,0.069,0.0005,0.336,0.002,0.2815,0.373,0.0035,0.073,0.127
-0.021,0.459,0.4795,-0.219,-0.2505,0.4695,0.077,0.005,0.341,0.008,0.2885,0.383,0.003,0.0785,0.1225
-0.0125,0.4615,0.473,-0.2245,-0.2425,0.467,0.073,0.0055,0.3395,0.0075,0.2875,0.38,0.013,0.072,0.126
-0.003,0.4585,0.4615,-0.2275,-0.2325,0.46,0.0765,0.005,0.339,0.003,0.283,0.3765,0.016,0.076,0.123
0.04,0.458,0.418,-0.249,-0.189,0.4375,0.065,-0.0085,0.3235,-0.011,0.2675,0.366,0.0145,0.0805,0.126
0.059,0.453,0.394,-0.256,-0.167,0.423,0.0535,-0.0135,0.319,-0.016,0.261,0.361,0.019,0.0765,0.1345
0.043,0.4545,0.4115,-0.249,-0.184,0.433,0.0645,-0.0005,0.333,-0.003,0.2725,0.376,0.0225,0.07,0.1325
0.032,0.451,0.419,-0.2415,-0.1935,0.4345,0.075,0.0075,0.342,0.003,0.2775,0.383,0.0235,0.058,0.133
0.016,0.444,0.428,-0.23,-0.206,0.4355,0.076,0.0095,0.345,0.005,0.2795,0.385,0.024,0.0615,0.135
0.0165,0.444,0.428,-0.23,-0.2055,0.436,0.0835,0.011,0.3465,0.0105,0.2835,0.3875,0.025,0.07,0.131
0.0215,0.4435,0.4225,-0.2325,-0.2005,0.433,0.084,0.0155,0.3535,0.0165,0.2885,0.3895,0.0275,0.0595,0.133
0.0265,0.4435,0.417,-0.235,-0.195,0.43,0.0795,0.013,0.35,0.0145,0.2855,0.3875,0.028,0.0585,0.134
0.029,0.4475,0.4185,-0.238,-0.1945,0.4325,0.078,0.008,0.3455,0.01,0.282,0.3835,0.022,0.066,0.1335
0.032,0.4535,0.4215,-0.243,-0.1945,0.4375,0.077,0.004,0.345,0.008,0.2785,0.379,0.017,0.0715,0.1325
0.034,0.463,0.429,-0.2485,-0.197,0.4455,0.0835,0.0095,0.3505,0.0135,0.281,0.381,0.0185,0.076,0.1275
0.024,0.462,0.438,-0.243,-0.207,0.4495,0.084,0.0155,0.357,0.018,0.284,0.384,0.0245,0.08,0.1265
0.029,0.471,0.4425,-0.25,-0.2065,0.4565,0.0835,0.0155,0.356,0.015,0.2815,0.3795,0.0265,0.0825,0.125
0.0465,0.4815,0.435,-0.264,-0.194,0.458,0.0805,0.0155,0.357,0.015,0.2815,0.379,0.029,0.084,0.125
0.05,0.4755,0.425,-0.263,-0.187,0.45,0.0815,0.021,0.363,0.0185,0.284,0.3775,0.035,0.0765,0.1215
0.044,0.4755,0.431,-0.2595,-0.193,0.453,0.0855,0.022,0.3635,0.019,0.2825,0.3755,0.0365,0.072,0.1225
0.054,0.475,0.4215,-0.2645,-0.1835,0.448,0.0825,0.019,0.359,0.015,0.279,0.3765,0.04,0.0825,0.125
0.0625,0.478,0.4155,-0.2705,-0.176,0.4465,0.0845,0.024,0.363,0.02,0.284,0.382,0.044,0.078,0.123
0.061,0.478,0.4175,-0.2695,-0.178,0.4475,0.081,0.0265,0.366,0.023,0.2875,0.386,0.05,0.078,0.126
0.054,0.4735,0.4195,-0.2635,-0.1825,0.446,0.081,0.0315,0.3675,0.0245,0.288,0.3865,0.054,0.076,0.128
0.028,0.4575,0.4295,-0.243,-0.2005,0.443,0.0855,0.0345,0.3695,0.0295,0.2925,0.391,0.051,0.0665,0.1305
0.0385,0.4525,0.414,-0.2455,-0.1875,0.433,0.0825,0.034,0.37,0.029,0.2925,0.3905,0.053,0.056,0.1315
0.067,0.465,0.398,-0.266,-0.165,0.4315,0.073,0.0325,0.3695,0.029,0.2925,0.391,0.061,0.0485,0.135
0.0595,0.4595,0.4,-0.2595,-0.17,0.4295,0.0695,0.036,0.3705,0.0315,0.295,0.395,0.065,0.053,0.1355
0.0575,0.454,0.396,-0.2555,-0.169,0.425,0.083,0.0445,0.3785,0.038,0.3005,0.4,0.065,0.0455,0.1305
0.059,0.4435,0.3845,-0.251,-0.1625,0.4135,0.084,0.0435,0.376,0.036,0.3005,0.402,0.069,0.0405,0.135
0.0475,0.431,0.383,-0.2395,-0.1675,0.407,0.072,0.0405,0.3705,0.0305,0.295,0.398,0.076,0.0365,0.1415
0.0585,0.439,0.3805,-0.249,-0.161,0.4095,0.061,0.033,0.365,0.026,0.2935,0.397,0.077,0.026,0.1425
0.0735,0.4345,0.361,-0.254,-0.1435,0.3975,0.055,0.032,0.3615,0.021,0.2905,0.3975,0.082,0.0235,0.144
0.067,0.4285,0.361,-0.248,-0.1465,0.3945,0.0525,0.024,0.3535,0.014,0.2855,0.3945,0.0845,0.024,0.152
0.07,0.4405,0.371,-0.2555,-0.15,0.4055,0.0405,0.009,0.3415,0.006,0.2815,0.392,0.079,0.032,0.155
0.0555,0.443,0.387,-0.2495,-0.1655,0.415,0.034,0.001,0.339,0.005,0.2805,0.3915,0.078,0.03,0.1555
0.0325,0.4435,0.411,-0.238,-0.189,0.427,0.019,-0.0145,0.329,-0.002,0.2755,0.389,0.071,0.034,0.1655
0.06,0.451,0.391,-0.2555,-0.165,0.421,-0.01,-0.036,0.3115,-0.0175,0.266,0.3815,0.0665,0.0565,0.175
0.069,0.463,0.394,-0.266,-0.162,0.428,-0.0175,-0.0515,0.299,-0.028,0.2595,0.3775,0.064,0.0655,0.1825
0.049,0.4615,0.4125,-0.2555,-0.1815,0.437,-0.0235,-0.0515,0.2975,-0.032,0.2575,0.3785,0.063,0.0605,0.1935
0.0585,0.4575,0.399,-0.258,-0.17,0.428,-0.0325,-0.048,0.3005,-0.0315,0.2575,0.381,0.066,0.0515,0.199
0.0615,0.455,0.393,-0.258,-0.1655,0.424,-0.0315,-0.0495,0.2995,-0.0305,0.257,0.384,0.0645,0.051,0.2025
0.0525,0.4475,0.3945,-0.25,-0.171,0.421,-0.0355,-0.051,0.298,-0.0355,0.2545,0.384,0.065,0.05,0.211
0.0605,0.451,0.3905,-0.2555,-0.165,0.4205,-0.0385,-0.05,0.2965,-0.0355,0.2555,0.3865,0.0685,0.0495,0.2195
0.0715,0.4465,0.375,-0.259,-0.1515,0.4105,-0.039,-0.051,0.2915,-0.038,0.2535,0.3855,0.0645,0.0515,0.2305
0.0835,0.4365,0.353,-0.2595,-0.1345,0.3945,-0.047,-0.055,0.285,-0.0455,0.248,0.3845,0.065,0.037,0.2425
0.0975,0.422,0.3245,-0.26,-0.113,0.373,-0.0525,-0.061,0.278,-0.05,0.2425,0.3785,0.069,0.0305,0.249
0.0845,0.401,0.3165,-0.2425,-0.116,0.3585,-0.0515,-0.065,0.272,-0.055,0.238,0.371,0.0645,0.02,0.251
0.071,0.396,0.325,-0.2335,-0.1265,0.36,-0.0425,-0.062,0.274,-0.052,0.2425,0.3735,0.062,0.007,0.2455
0.068,0.3985,0.3305,-0.233,-0.1315,0.3645,-0.0325,-0.059,0.2765,-0.048,0.242,0.373,0.056,0.013,0.2365
0.0565,0.396,0.339,-0.226,-0.141,0.367,-0.0285,-0.0575,0.277,-0.048,0.2395,0.368,0.0475,0.018,0.2345
0.052,0.395,0.3435,-0.2235,-0.1455,0.369,-0.024,-0.0565,0.2795,-0.0425,0.242,0.3705,0.043,0.0205,0.2295
0.0415,0.405,0.363,-0.2235,-0.1605,0.384,-0.0165,-0.0475,0.29,-0.0335,0.254,0.382,0.045,0.0235,0.22
0.033,0.4115,0.378,-0.2225,-0.1725,0.3945,-0.008,-0.0395,0.2975,-0.0305,0.2585,0.3845,0.043,0.032,0.2115
0.0365,0.4165,0.38,-0.2265,-0.1715,0.398,-0.0085,-0.044,0.2935,-0.033,0.254,0.382,0.041,0.033,0.205
0.043,0.4275,0.384,-0.235,-0.1705,0.4055,-0.0045,-0.041,0.2965,-0.0315,0.2585,0.387,0.0425,0.0345,0.1965
0.041,0.425,0.3835,-0.233,-0.171,0.404,0.001,-0.0345,0.3015,-0.0285,0.259,0.387,0.0415,0.035,0.188
0.0515,0.429,0.377,-0.24,-0.1625,0.4025,-0.0045,-0.035,0.3025,-0.0275,0.2595,0.385,0.0455,0.04,0.181
0.0845,0.4355,0.3505,-0.26,-0.133,0.3925,-0.011,-0.038,0.2995,-0.03,0.2575,0.3825,0.051,0.055,0.174
0.0815,0.4375,0.356,-0.2595,-0.137,0.3965,-0.011,-0.0375,0.3015,-0.027,0.2585,0.385,0.0545,0.0495,0.1715
0.075,0.444,0.369,-0.2595,-0.1465,0.406,-0.0105,-0.0315,0.3045,-0.0225,0.262,0.388,0.0565,0.04,0.174
0.08,0.4445,0.365,-0.2625,-0.1425,0.4045,-0.0085,-0.0235,0.3105,-0.016,0.269,0.393,0.059,0.038,0.173
0.0745,0.443,0.369,-0.259,-0.147,0.406,-0.006,-0.025,0.3095,-0.0155,0.2705,0.392,0.0545,0.036,0.1735
0.084,0.435,0.351,-0.2595,-0.1335,0.3925,-0.009,-0.029,0.3015,-0.0265,0.261,0.3835,0.054,0.0225,0.1805
0.0845,0.419,0.334,-0.252,-0.1245,0.3765,-0.0065,-0.0225,0.306,-0.0255,0.263,0.385,0.057,0.011,0.1825
0.0835,0.4115,0.3285,-0.2475,-0.122,0.3695,-0.0075,-0.026,0.303,-0.025,0.2635,0.3855,0.058,0.0065,0.187
0.0895,0.412,0.3225,-0.251,-0.1165,0.367,-0.0095,-0.0255,0.304,-0.0245,0.2645,0.3875,0.063,-0.0055,0.1875
0.092,0.406,0.314,-0.249,-0.1105,0.36,-0.0025,-0.0135,0.318,-0.011,0.2745,0.3945,0.071,-0.016,0.1805
0.0845,0.3955,0.3105,-0.24,-0.113,0.353,0.001,-0.008,0.3245,-0.005,0.2815,0.398,0.075,-0.01,0.177
0.0815,0.389,0.3075,-0.2355,-0.113,0.348,0.0015,-0.0115,0.3205,-0.01,0.279,0.3965,0.069,-0.009,0.179
0.0845,0.3825,0.2975,-0.2335,-0.106,0.3395,0.002,-0.0165,0.3145,-0.016,0.273,0.3935,0.0655,-0.0215,0.1845
0.076,0.3755,0.2995,-0.226,-0.1115,0.3375,0.001,-0.0175,0.313,-0.0185,0.271,0.39,0.0645,-0.027,0.183
0.0775,0.3805,0.303,-0.229,-0.1125,0.3415,0.0025,-0.019,0.311,-0.0195,0.2695,0.388,0.063,-0.0285,0.181
0.077,0.3875,0.3105,-0.232,-0.1165,0.349,0.0005,-0.023,0.3105,-0.02,0.272,0.389,0.061,-0.0215,0.179
0.0725,0.3955,0.323,-0.234,-0.125,0.3585,0.0005,-0.022,0.311,-0.019,0.274,0.39,0.0605,-0.005,0.174
0.0735,0.4025,0.329,-0.238,-0.1275,0.3655,0.0035,-0.0185,0.312,-0.019,0.272,0.387,0.0565,0.009,0.169
0.072,0.4015,0.329,-0.237,-0.128,0.365,-0.0045,-0.0235,0.3075,-0.026,0.265,0.3795,0.049,0.004,0.173
0.073,0.4025,0.3295,-0.2375,-0.128,0.3655,-0.008,-0.0265,0.302,-0.0305,0.2615,0.3775,0.0465,-0.0025,0.177
0.0595,0.395,0.3355,-0.227,-0.1375,0.365,-0.005,-0.0305,0.296,-0.036,0.256,0.3745,0.0355,0.0,0.1775
0.041,0.3865,0.3455,-0.214,-0.152,0.366,-0.004,-0.04,0.286,-0.046,0.248,0.37,0.028,0.0055,0.1855
0.02,0.3945,0.3745,-0.2075,-0.177,0.3845,0.003,-0.038,0.289,-0.041,0.2515,0.3735,0.0255,0.012,0.187
-0.0025,0.3935,0.396,-0.1955,-0.199,0.3945,0.0205,-0.027,0.299,-0.033,0.257,0.3765,0.019,0.015,0.18
-0.0195,0.392,0.4115,-0.1865,-0.2155,0.4015,0.0355,-0.0175,0.306,-0.0275,0.2595,0.3775,0.015,0.0315,0.171
-0.036,0.3935,0.429,-0.179,-0.232,0.411,0.0465,-0.013,0.31,-0.022,0.2585,0.3735,0.006,0.0375,0.1625
-0.0315,0.388,0.4195,-0.1785,-0.225,0.4035,0.0525,-0.0095,0.312,-0.023,0.256,0.369,-0.001,0.033,0.158
0.009,0.387,0.378,-0.198,-0.1845,0.3825,0.038,-0.025,0.296,-0.0395,0.2375,0.3545,-0.003,0.039,0.159
0.035,0.384,0.3495,-0.2095,-0.157,0.3665,0.0345,-0.034,0.2865,-0.046,0.23,0.347,-0.0025,0.0295,0.161
0.0215,0.3825,0.3615,-0.202,-0.17,0.372,0.043,-0.0215,0.2985,-0.035,0.2415,0.357,-0.003,0.0145,0.1595
0.011,0.379,0.368,-0.195,-0.1785,0.3735,0.044,-0.0205,0.2985,-0.0345,0.241,0.3575,-0.0075,0.017,0.157
-0.0025,0.3785,0.381,-0.188,-0.1915,0.3795,0.047,-0.023,0.297,-0.0345,0.241,0.3575,-0.008,0.021,0.1595
-0.027,0.3745,0.402,-0.1735,-0.2145,0.388,0.0475,-0.0245,0.298,-0.0335,0.2445,0.3615,-0.008,0.0135,0.1675
-0.036,0.3715,0.407,-0.168,-0.221,0.389,0.0495,-0.027,0.296,-0.037,0.244,0.359,-0.0095,0.0085,0.17
-0.0305,0.3805,0.411,-0.175,-0.2205,0.3955,0.045,-0.0305,0.29,-0.041,0.2375,0.3545,-0.01,0.0135,0.1685
-0.026,0.3865,0.4125,-0.18,-0.219,0.399,0.0405,-0.032,0.2865,-0.044,0.234,0.35,-0.01,0.021,0.1685
-0.0025,0.389,0.391,-0.193,-0.1965,0.3895,0.0315,-0.0425,0.277,-0.0535,0.224,0.3395,-0.0085,0.0255,0.1665
0.0135,0.3885,0.375,-0.201,-0.1805,0.3815,0.0285,-0.0465,0.2735,-0.0585,0.22,0.333,-0.0075,0.0275,0.1655
0.007,0.3935,0.386,-0.2005,-0.189,0.3895,0.037,-0.0395,0.2805,-0.054,0.227,0.3355,-0.007,0.023,0.1625
-0.0055,0.3965,0.402,-0.1955,-0.204,0.399,0.0375,-0.042,0.2785,-0.0545,0.225,0.3365,-0.01,0.0205,0.1645
-0.015,0.3975,0.4125,-0.191,-0.2135,0.4045,0.0345,-0.0425,0.278,-0.0545,0.2245,0.334,-0.012,0.0295,0.1665
-0.0075,0.4005,0.408,-0.1965,-0.2075,0.404,0.033,-0.044,0.2765,-0.0555,0.221,0.3295,-0.0145,0.037,0.1635
-0.008,0.4025,0.4105,-0.1975,-0.209,0.406,0.0305,-0.0475,0.272,-0.0585,0.2175,0.324,-0.0205,0.039,0.1615
-0.012,0.4,0.412,-0.194,-0.212,0.406,0.0295,-0.048,0.2705,-0.056,0.2185,0.324,-0.019,0.035,0.161
-0.006,0.3885,0.395,-0.191,-0.2005,0.3915,0.033,-0.0435,0.2745,-0.0535,0.2215,0.327,-0.019,0.0255,0.1615
-0.004,0.3905,0.395,-0.1935,-0.1995,0.3925,0.036,-0.0385,0.28,-0.0495,0.227,0.3305,-0.0185,0.0185,0.1615
-0.0175,0.3955,0.4125,-0.189,-0.2145,0.4035,0.038,-0.034,0.284,-0.0445,0.2315,0.337,-0.018,0.021,0.165
-0.019,0.3945,0.413,-0.188,-0.216,0.4035,0.0405,-0.033,0.284,-0.0465,0.2305,0.3365,-0.0205,0.0235,0.166
-0.0185,0.3905,0.409,-0.186,-0.2135,0.3995,0.0395,-0.033,0.28,-0.048,0.228,0.336,-0.0215,0.0165,0.1655
-0.0075,0.3805,0.3885,-0.1865,-0.1975,0.384,0.029,-0.0395,0.275,-0.053,0.225,0.3345,-0.0165,0.012,0.168
-0.004,0.377,0.3815,-0.1865,-0.1925,0.3795,0.0325,-0.0385,0.2785,-0.049,0.229,0.34,-0.01,0.013,0.17
-0.0225,0.374,0.3965,-0.1755,-0.209,0.385,0.042,-0.0315,0.285,-0.0415,0.2385,0.349,-0.01,0.0115,0.171
-0.007,0.372,0.379,-0.1825,-0.193,0.3755,0.035,-0.0355,0.2785,-0.0475,0.236,0.346,-0.0105,0.0075,0.172
-0.004,0.37,0.374,-0.183,-0.1885,0.3715,0.037,-0.0345,0.2775,-0.05,0.233,0.346,-0.01,0.001,0.171
-0.01,0.372,0.3815,-0.181,-0.1955,0.3765,0.0395,-0.0345,0.279,-0.0505,0.231,0.344,-0.012,0.0035,0.17
-0.001,0.3805,0.382,-0.19,-0.191,0.381,0.0425,-0.0315,0.2805,-0.049,0.229,0.341,-0.0135,0.012,0.1665
-0.004,0.3815,0.3855,-0.189,-0.1945,0.383,0.044,-0.028,0.283,-0.05,0.227,0.3385,-0.0125,0.007,0.161
-0.0095,0.3775,0.387,-0.184,-0.198,0.382,0.0405,-0.0295,0.279,-0.056,0.222,0.3315,-0.0185,0.004,0.1615
-0.0145,0.3745,0.3885,-0.18,-0.201,0.3815,0.0405,-0.031,0.275,-0.0585,0.2195,0.3275,-0.021,0.006,0.162
-0.0185,0.3735,0.392,-0.1775,-0.205,0.3825,0.0415,-0.038,0.269,-0.0655,0.213,0.324,-0.025,0.007,0.162
-0.0225,0.379,0.402,-0.178,-0.212,0.3905,0.045,-0.0375,0.264,-0.072,0.2045,0.3165,-0.0335,0.0145,0.1605
-0.0315,0.3845,0.416,-0.1765,-0.2235,0.4,0.042,-0.0455,0.2555,-0.078,0.2005,0.314,-0.0375,0.0145,0.1625
-0.042,0.3895,0.432,-0.174,-0.237,0.4105,0.044,-0.06,0.2405,-0.088,0.192,0.3085,-0.0505,0.0195,0.163
-0.0455,0.3915,0.437,-0.173,-0.241,0.414,0.0445,-0.074,0.2185,-0.109,0.1725,0.295,-0.0585,0.0195,0.1705
-0.046,0.3895,0.4355,-0.1715,-0.2405,0.4125,0.0365,-0.097,0.191,-0.1305,0.1635,0.2965,-0.059,0.0125,0.185
-0.0435,0.3985,0.442,-0.1775,-0.2425,0.42,0.0225,-0.126,0.1655,-0.144,0.167,0.3115,-0.053,0.027,0.1965
-0.035,0.41,0.445,-0.1875,-0.24,0.4275,0.003,-0.1625,0.1305,-0.166,0.163,0.3225,-0.0445,0.034,0.2145
-0.036,0.424,0.4595,-0.194,-0.2475,0.4415,-0.018,-0.2035,0.091,-0.191,0.159,0.334,-0.0425,0.0445,0.231
-0.0335,0.444,0.4765,-0.2055,-0.255,0.4605,-0.0495,-0.2535,0.0465,-0.214,0.1645,0.36,-0.0285,0.0655,0.2555
-0.0205,0.4685,0.4885,-0.224,-0.2545,0.4785,-0.089,-0.3105,-0.0055,-0.241,0.1705,0.3905,-0.0065,0.086,0.287
-0.006,0.4935,0.499,-0.2435,-0.2525,0.496,-0.128,-0.3635,-0.0565,-0.274,0.17,0.4145,0.014,0.104,0.314
0.012,0.5155,0.503,-0.264,-0.2455,0.5095,-0.1635,-0.41,-0.0975,-0.297,0.179,0.449,0.0415,0.1175,0.338
0.021,0.541,0.5195,-0.281,-0.2495,0.53,-0.198,-0.458,-0.1375,-0.315,0.192,0.4895,0.069,0.14,0.362
0.0285,0.5655,0.5365,-0.297,-0.254,0.551,-0.23,-0.5085,-0.181,-0.3445,0.1895,0.517,0.0845,0.1655,0.3885
0.0415,0.586,0.544,-0.314,-0.2515,0.565,-0.262,-0.5565,-0.2325,-0.3875,0.17,0.5285,0.091,0.187,0.419
0.048,0.606,0.5575,-0.327,-0.2545,0.582,-0.292,-0.598,-0.2745,-0.4245,0.153,0.5445,0.1015,0.207,0.4455
0.065,0.635,0.57,-0.35,-0.2525,0.6025,-0.3155,-0.621,-0.294,-0.4395,0.153,0.57,0.122,0.2345,0.4575
0.0885,0.6475,0.5585,-0.368,-0.235,0.603,-0.3365,-0.6295,-0.3045,-0.4515,0.149,0.5875,0.145,0.242,0.4765
0.115,0.6535,0.538,-0.384,-0.2115,0.5955,-0.3555,-0.635,-0.312,-0.464,0.143,0.604,0.1665,0.2445,0.4945
0.137,0.664,0.5265,-0.4005,-0.195,0.5955,-0.3675,-0.6335,-0.316,-0.475,0.1385,0.6225,0.1875,0.252,0.5085
0.161,0.6895,0.528,-0.4255,-0.1835,0.609,-0.3805,-0.625,-0.3055,-0.4655,0.1575,0.6635,0.227,0.266,0.516
0.209,0.7295,0.52,-0.4695,-0.1555,0.625,-0.4005,-0.634,-0.312,-0.468,0.168,0.6985,0.262,0.289,0.5235
0.2325,0.767,0.5335,-0.5,-0.1505,0.65,-0.4195,-0.66,-0.3345,-0.482,0.172,0.732,0.288,0.3295,0.5385
0.243,0.817,0.573,-0.53,-0.165,0.6945,-0.452,-0.6895,-0.35,-0.478,0.2015,0.7955,0.336,0.377,0.557
0.2645,0.871,0.6065,-0.568,-0.171,0.7385,-0.473,-0.7135,-0.356,-0.4665,0.2365,0.8615,0.385,0.4235,0.564
0.2985,0.9275,0.629,-0.613,-0.1655,0.778,-0.4845,-0.72,-0.345,-0.442,0.279,0.9285,0.438,0.479,0.556
0.314,0.961,0.6465,-0.6375,-0.166,0.8035,-0.488,-0.7245,-0.338,-0.427,0.307,0.98,0.473,0.5055,0.5585
0.345,1.0065,0.6615,-0.6755,-0.158,0.8335,-0.4955,-0.761,-0.3615,-0.4375,0.3085,1.009,0.491,0.5495,0.5575
0.4145,1.065,0.6505,-0.7395,-0.118,0.8575,-0.5235,-0.805,-0.395,-0.457,0.3005,1.025,0.51,0.598,0.558
0.411,1.102,0.6905,-0.7565,-0.1395,0.896,-0.5275,-0.8355,-0.42,-0.4635,0.311,1.0605,0.525,0.644,0.568
0.3995,1.0765,0.6765,-0.738,-0.1385,0.8765,-0.5205,-0.8565,-0.446,-0.484,0.2955,1.0585,0.516,0.6375,0.5875
0.4205,1.013,0.5925,-0.717,-0.0855,0.8025,-0.5145,-0.8875,-0.487,-0.5305,0.2405,1.006,0.476,0.582,0.61
0.408,0.97,0.5615,-0.689,-0.0765,0.765,-0.5035,-0.933,-0.537,-0.573,0.197,0.972,0.4405,0.555,0.627
0.362,0.855,0.493,-0.6085,-0.0655,0.674,-0.435,-0.903,-0.5315,-0.5855,0.16,0.915,0.389,0.4595,0.631
0.3225,0.744,0.421,-0.5335,-0.049,0.5825,-0.391,-0.878,-0.523,-0.591,0.1265,0.8555,0.3435,0.3685,0.642
0.3025,0.702,0.4,-0.5025,-0.0485,0.551,-0.3955,-0.8925,-0.5385,-0.606,0.0955,0.8085,0.3045,0.3375,0.66
0.262,0.672,0.41,-0.467,-0.0735,0.5405,-0.3665,-0.8905,-0.542,-0.617,0.0545,0.744,0.2415,0.3255,0.657
0.202,0.6445,0.443,-0.4235,-0.1205,0.5435,-0.35,-0.9005,-0.5515,-0.633,0.007,0.667,0.168,0.324,0.658
0.1455,0.6335,0.488,-0.3895,-0.1715,0.5605,-0.3525,-0.9085,-0.559,-0.643,-0.0265,0.606,0.1055,0.327,0.6675
0.106,0.65,0.5435,-0.378,-0.2185,0.5965,-0.361,-0.908,-0.551,-0.6305,-0.03,0.5755,0.07,0.356,0.668
0.085,0.6645,0.579,-0.375,-0.247,0.622,-0.3785,-0.904,-0.5335,-0.6105,-0.0265,0.547,0.042,0.3805,0.6655
0.066,0.6885,0.6215,-0.3775,-0.2775,0.655,-0.398,-0.899,-0.5135,-0.5855,-0.015,0.5255,0.017,0.412,0.655
0.06,0.723,0.662,-0.3915,-0.301,0.692,-0.4145,-0.864,-0.463,-0.5315,0.0295,0.5355,0.021,0.445,0.629
0.057,0.731,0.673,-0.394,-0.308,0.7015,-0.4315,-0.828,-0.4315,-0.5065,0.0445,0.53,0.019,0.4485,0.627
0.011,0.6875,0.676,-0.3495,-0.3325,0.6815,-0.418,-0.804,-0.4365,-0.5365,-0.006,0.461,-0.0395,0.4135,0.638
-0.046,0.6195,0.6655,-0.2865,-0.356,0.6425,-0.3945,-0.7835,-0.452,-0.5855,-0.0815,0.365,-0.121,0.363,0.655
-0.079,0.5625,0.6415,-0.242,-0.36,0.602,-0.3795,-0.7695,-0.4755,-0.6365,-0.1595,0.2665,-0.205,0.3085,0.675
-0.1155,0.5005,0.6155,-0.1925,-0.3655,0.558,-0.355,-0.731,-0.4655,-0.6555,-0.21,0.1905,-0.2675,0.241,0.6735
-0.1515,0.425,0.5765,-0.137,-0.364,0.501,-0.3365,-0.6935,-0.452,-0.667,-0.2435,0.1365,-0.306,0.18,0.67
-0.1715,0.361,0.5315,-0.095,-0.3515,0.4465,-0.317,-0.661,-0.4425,-0.6835,-0.2785,0.0825,-0.3455,0.122,0.665
-0.196,0.3,0.4955,-0.052,-0.3455,0.3975,-0.2875,-0.61,-0.414,-0.6785,-0.2945,0.046,-0.374,0.062,0.651
-0.2075,0.251,0.458,-0.022,-0.3325,0.3545,-0.286,-0.5645,-0.381,-0.6625,-0.2925,0.0245,-0.3875,0.025,0.6405
-0.199,0.2365,0.4355,-0.019,-0.317,0.336,-0.2985,-0.536,-0.3515,-0.6385,-0.2755,0.0195,-0.3865,0.003,0.6215
-0.1705,0.228,0.3985,-0.0285,-0.2845,0.313,-0.3,-0.512,-0.3285,-0.62,-0.2635,0.0135,-0.38,-0.02,0.597
-0.155,0.2295,0.3845,-0.037,-0.2695,0.3065,-0.2905,-0.4755,-0.2865,-0.5885,-0.2445,0.012,-0.3715,-0.029,0.564
-0.1705,0.243,0.414,-0.036,-0.292,0.3285,-0.2515,-0.415,-0.226,-0.5355,-0.209,0.0245,-0.363,-0.029,0.5195
-0.1645,0.254,0.4185,-0.045,-0.291,0.336,-0.218,-0.3495,-0.162,-0.4855,-0.1745,0.038,-0.347,-0.023,0.4785
-0.1565,0.247,0.4035,-0.0455,-0.2795,0.325,-0.1805,-0.281,-0.0945,-0.4355,-0.1385,0.0525,-0.327,-0.028,0.4325
-0.155,0.2405,0.3955,-0.0425,-0.275,0.318,-0.132,-0.211,-0.0205,-0.372,-0.0915,0.074,-0.304,-0.045,0.384
-0.146,0.254,0.4,-0.054,-0.2725,0.327,-0.091,-0.151,0.053,-0.3045,-0.041,0.0995,-0.2785,-0.0455,0.3355
-0.1385,0.2615,0.3995,-0.0615,-0.2685,0.3305,-0.0525,-0.08,0.126,-0.242,0.0055,0.123,-0.2485,-0.0415,0.2905
-0.1195,0.2805,0.4005,-0.0805,-0.26,0.3405,-0.014,0.0005,0.2115,-0.167,0.0635,0.1575,-0.203,-0.0455,0.244
-0.0975,0.2995,0.397,-0.101,-0.2475,0.348,0.0245,0.0695,0.29,-0.092,0.125,0.196,-0.1585,-0.044,0.1925
-0.0635,0.308,0.3715,-0.1225,-0.217,0.3395,0.0525,0.1255,0.359,-0.026,0.181,0.231,-0.114,-0.042,0.1495
-0.03,0.311,0.3415,-0.1405,-0.1855,0.326,0.068,0.155,0.4055,0.0235,0.2215,0.256,-0.0785,-0.039,0.1155
-0.016,0.3185,0.335,-0.1515,-0.175,0.3265,0.0765,0.166,0.4365,0.0595,0.253,0.278,-0.0515,-0.0265,0.0955
-0.0065,0.339,0.346,-0.166,-0.176,0.342,0.082,0.172,0.467,0.097,0.2885,0.3045,-0.028,-0.017,0.086
-0.0125,0.349,0.3615,-0.1685,-0.1865,0.355,0.087,0.1795,0.489,0.1235,0.3155,0.3255,-0.0125,-0.0015,0.0775
-0.0105,0.358,0.3685,-0.1735,-0.1895,0.363,0.0935,0.187,0.507,0.1445,0.3355,0.3415,0.0035,0.0075,0.0685
-0.0035,0.362,0.3655,-0.179,-0.1845,0.3635,0.103,0.1945,0.5245,0.1635,0.3535,0.355,0.0165,0.001,0.0595
-0.002,0.3635,0.3655,-0.1805,-0.184,0.3645,0.114,0.2055,0.54,0.179,0.3665,0.365,0.0285,0.0005,0.0555
0.0125,0.3585,0.346,-0.1855,-0.1665,0.352,0.12,0.2175,0.5535,0.191,0.3745,0.3675,0.041,-0.0005,0.05
0.0285,0.35,0.3215,-0.1895,-0.1465,0.3355,0.123,0.225,0.5645,0.199,0.38,0.368,0.052,-0.0055,0.044
0.028,0.3475,0.3195,-0.188,-0.1455,0.333,0.132,0.2345,0.5765,0.211,0.388,0.3725,0.06,-0.0105,0.039
0.0215,0.348,0.3265,-0.1845,-0.1525,0.337,0.1445,0.247,0.5905,0.223,0.399,0.379,0.065,-0.013,0.033
0.023,0.3515,0.3285,-0.187,-0.1525,0.3395,0.1475,0.2515,0.596,0.227,0.4025,0.379,0.0675,-0.012,0.0285
0.0245,0.353,0.3285,-0.189,-0.152,0.3405,0.1515,0.2575,0.601,0.23,0.404,0.3785,0.072,-0.016,0.0255
0.031,0.3545,0.3235,-0.193,-0.146,0.339,0.157,0.2655,0.61,0.237,0.409,0.3825,0.0775,-0.0165,0.023
0.032,0.3575,0.3255,-0.1945,-0.1465,0.341,0.1595,0.269,0.6155,0.242,0.414,0.384,0.08,-0.012,0.0205
0.0255,0.357,0.3315,-0.1915,-0.1525,0.344,0.163,0.272,0.6205,0.245,0.415,0.3855,0.0815,-0.009,0.0165
0.0355,0.3595,0.324,-0.1975,-0.144,0.3415,0.166,0.277,0.6255,0.249,0.419,0.3885,0.086,-0.0135,0.012
0.04,0.3575,0.318,-0.199,-0.139,0.3375,0.1685,0.2825,0.6295,0.2535,0.421,0.3895,0.091,-0.024,0.011
0.027,0.3525,0.3255,-0.19,-0.149,0.339,0.1705,0.2825,0.6335,0.257,0.423,0.3905,0.089,-0.02,0.0085
0.0295,0.356,0.3265,-0.1925,-0.148,0.341,0.1705,0.285,0.6365,0.262,0.4285,0.3945,0.091,-0.0185,0.008
0.0295,0.351,0.3215,-0.1905,-0.1455,0.336,0.1695,0.2875,0.64,0.267,0.431,0.3955,0.093,-0.0185,0.0085
0.028,0.3505,0.3225,-0.1895,-0.147,0.336,0.1725,0.291,0.6445,0.2715,0.437,0.3985,0.0905,-0.016,0.005
0.0405,0.351,0.3105,-0.196,-0.1345,0.3305,0.1735,0.293,0.646,0.2755,0.4405,0.3995,0.093,-0.027,0.003
0.042,0.3455,0.304,-0.194,-0.131,0.3245,0.172,0.2945,0.648,0.2795,0.442,0.4,0.099,-0.034,0.0035
0.0255,0.3355,0.31,-0.1805,-0.142,0.3225,0.1735,0.2965,0.651,0.283,0.4485,0.4045,0.102,-0.03,0.0055
0.0185,0.3305,0.3115,-0.1745,-0.1465,0.3205,0.181,0.299,0.655,0.2875,0.453,0.408,0.099,-0.0255,0.001
0.033,0.3375,0.3045,-0.185,-0.1355,0.3205,0.1825,0.304,0.66,0.2915,0.457,0.4115,0.1035,-0.0325,-0.0005
0.0355,0.3385,0.303,-0.187,-0.1335,0.3205,0.1815,0.305,0.6635,0.294,0.4595,0.4145,0.106,-0.036,0.0005
0.035,0.34,0.3055,-0.1875,-0.135,0.3225,0.184,0.3075,0.666,0.2965,0.464,0.418,0.107,-0.041,-0.002
0.0385,0.346,0.3075,-0.192,-0.1345,0.3265,0.1815,0.307,0.6655,0.295,0.4635,0.418,0.1105,-0.042,-0.002
0.0395,0.35,0.3105,-0.195,-0.135,0.33,0.1795,0.3065,0.665,0.293,0.46,0.4155,0.1075,-0.0395,-0.0045
0.0465,0.352,0.3055,-0.1995,-0.1295,0.3285,0.178,0.307,0.664,0.289,0.4595,0.412,0.1105,-0.0415,-0.004
0.0535,0.3605,0.307,-0.207,-0.1265,0.3335,0.172,0.3005,0.6575,0.282,0.451,0.4025,0.11,-0.026,-0.005
0.0505,0.361,0.3105,-0.206,-0.1295,0.3355,0.167,0.296,0.655,0.278,0.446,0.3965,0.104,-0.0175,-0.0075
0.0425,0.3575,0.3145,-0.2,-0.136,0.3355,0.1695,0.299,0.6585,0.281,0.4495,0.3985,0.1055,-0.0165,-0.007
0.039,0.361,0.322,-0.2,-0.141,0.341,0.171,0.3005,0.661,0.285,0.4535,0.401,0.107,-0.0175,-0.0095
0.039,0.3645,0.326,-0.2015,-0.1435,0.345,0.17,0.3005,0.662,0.2855,0.454,0.3995,0.1065,-0.02,-0.0105
0.0445,0.367,0.323,-0.206,-0.139,0.345,0.171,0.303,0.6635,0.286,0.4525,0.398,0.108,-0.0205,-0.0105
0.0375,0.367,0.3295,-0.2025,-0.1455,0.348,0.173,0.304,0.664,0.289,0.457,0.401,0.109,-0.0215,-0.015
0.0325,0.3665,0.3345,-0.1995,-0.151,0.35,0.175,0.3055,0.6665,0.293,0.4595,0.4045,0.1105,-0.0225,-0.0115
0.0325,0.3665,0.334,-0.1995,-0.1505,0.35,0.1775,0.307,0.671,0.2985,0.463,0.409,0.1155,-0.0245,-0.008
0.029,0.3635,0.3345,-0.196,-0.1525,0.349,0.18,0.308,0.6725,0.301,0.465,0.412,0.116,-0.0205,-0.01
0.0285,0.3595,0.331,-0.194,-0.151,0.345,0.1825,0.3125,0.6755,0.303,0.4685,0.4145,0.1125,-0.022,-0.01
0.026,0.3585,0.3325,-0.1925,-0.1525,0.345,0.1855,0.316,0.6785,0.307,0.4705,0.416,0.1115,-0.023,-0.0115
0.05,0.3565,0.306,-0.203,-0.128,0.331,0.1795,0.3085,0.671,0.3,0.4605,0.4065,0.1125,-0.0255,-0.0105
0.057,0.357,0.3,-0.207,-0.1215,0.328,0.1805,0.309,0.672,0.3005,0.461,0.4095,0.114,-0.0295,-0.012
0.043,0.3605,0.3175,-0.202,-0.137,0.339,0.188,0.3155,0.681,0.3095,0.471,0.4175,0.116,-0.0305,-0.014
0.0455,0.3585,0.313,-0.202,-0.1335,0.3355,0.1865,0.3145,0.681,0.31,0.4725,0.4175,0.1165,-0.0365,-0.013
0.0325,0.351,0.3185,-0.192,-0.1425,0.3345,0.1905,0.3205,0.6845,0.3145,0.4785,0.4235,0.1155,-0.035,-0.014
0.044,0.3535,0.3095,-0.1985,-0.1325,0.331,0.1865,0.3175,0.683,0.31,0.477,0.4215,0.1175,-0.0275,-0.0145
0.065,0.3595,0.2945,-0.212,-0.1145,0.3265,0.1765,0.3105,0.6755,0.303,0.4695,0.4155,0.1195,-0.0265,-0.0145
0.062,0.3655,0.303,-0.2135,-0.12,0.334,0.179,0.313,0.6785,0.3045,0.4705,0.4145,0.1185,-0.029,-0.0155
0.0545,0.3755,0.321,-0.215,-0.133,0.348,0.1855,0.3155,0.684,0.308,0.4735,0.416,0.119,-0.021,-0.0175
0.0465,0.376,0.329,-0.2115,-0.141,0.3525,0.186,0.3175,0.685,0.3105,0.4745,0.416,0.117,-0.013,-0.02
0.044,0.3735,0.33,-0.2085,-0.1425,0.3515,0.1885,0.321,0.6885,0.3135,0.476,0.4175,0.1175,-0.0165,-0.021
0.044,0.3705,0.3265,-0.207,-0.141,0.348,0.19,0.322,0.6915,0.315,0.4795,0.42,0.119,-0.0145,-0.0185
0.0675,0.375,0.307,-0.2215,-0.1195,0.341,0.181,0.313,0.6835,0.3065,0.471,0.411,0.119,-0.0125,-0.0175
0.064,0.3795,0.3155,-0.222,-0.1255,0.3475,0.1835,0.314,0.6825,0.3055,0.467,0.4075,0.117,-0.014,-0.0215
0.0385,0.377,0.339,-0.208,-0.15,0.3575,0.1925,0.324,0.6895,0.3135,0.4735,0.4145,0.116,-0.022,-0.0225
0.051,0.377,0.326,-0.214,-0.1375,0.3515,0.1915,0.322,0.688,0.313,0.4725,0.412,0.117,-0.028,-0.0225
0.069,0.376,0.3075,-0.2225,-0.119,0.3415,0.185,0.318,0.683,0.309,0.467,0.4075,0.1175,-0.026,-0.0215
0.0565,0.374,0.3175,-0.215,-0.13,0.3455,0.1875,0.3225,0.6865,0.313,0.471,0.412,0.118,-0.022,-0.0225
0.042,0.365,0.3225,-0.2035,-0.14,0.3435,0.193,0.328,0.693,0.3195,0.4785,0.417,0.117,-0.0225,-0.0255
0.0415,0.3625,0.321,-0.202,-0.1395,0.3415,0.193,0.3305,0.6935,0.3225,0.4785,0.4195,0.1185,-0.0245,-0.0265
0.0365,0.3595,0.323,-0.198,-0.143,0.341,0.195,0.3325,0.6955,0.3245,0.481,0.4215,0.119,-0.029,-0.026
0.0405,0.355,0.3145,-0.1975,-0.1365,0.3345,0.1955,0.334,0.698,0.326,0.485,0.425,0.1225,-0.0345,-0.0265
0.0375,0.348,0.3105,-0.193,-0.136,0.329,0.198,0.336,0.701,0.331,0.489,0.4265,0.1235,-0.0295,-0.028
0.0305,0.3395,0.309,-0.1855,-0.139,0.324,0.198,0.3375,0.704,0.3335,0.4915,0.429,0.126,-0.0385,-0.0285
0.0415,0.345,0.3035,-0.1935,-0.1305,0.324,0.198,0.339,0.7075,0.3355,0.494,0.4315,0.1285,-0.0445,-0.031
0.0625,0.347,0.2845,-0.2045,-0.111,0.3155,0.193,0.3355,0.705,0.333,0.49,0.4265,0.1285,-0.044,-0.035
0.0635,0.3495,0.286,-0.207,-0.111,0.3175,0.19,0.3335,0.703,0.3315,0.487,0.4255,0.132,-0.044,-0.0355
0.057,0.355,0.298,-0.206,-0.1205,0.326,0.193,0.3375,0.7085,0.3345,0.4925,0.428,0.133,-0.0385,-0.037
0.0615,0.3625,0.301,-0.212,-0.1195,0.3315,0.1925,0.338,0.71,0.3355,0.4925,0.4275,0.133,-0.037,-0.0405
0.054,0.3625,0.3085,-0.2085,-0.127,0.335,0.1955,0.3395,0.711,0.3375,0.4915,0.4265,0.134,-0.033,-0.041
0.0455,0.362,0.3165,-0.2035,-0.135,0.339,0.1945,0.341,0.712,0.3365,0.4925,0.425,0.131,-0.034,-0.042
0.0435,0.373,0.329,-0.208,-0.1425,0.3505,0.197,0.3425,0.7115,0.333,0.4905,0.4225,0.127,-0.0275,-0.041
0.048,0.375,0.327,-0.2115,-0.139,0.3505,0.2,0.341,0.71,0.3285,0.484,0.4165,0.1235,-0.017,-0.039
0.063,0.382,0.3195,-0.2225,-0.128,0.3505,0.194,0.3385,0.7075,0.325,0.479,0.411,0.1245,-0.0215,-0.0395
0.068,0.383,0.3155,-0.2255,-0.1235,0.349,0.197,0.3395,0.7085,0.326,0.4775,0.413,0.126,-0.0215,-0.0405
0.0545,0.379,0.325,-0.217,-0.135,0.3515,0.2025,0.3455,0.7135,0.3315,0.4815,0.416,0.1245,-0.0175,-0.04
0.052,0.3795,0.3275,-0.216,-0.1375,0.353,0.203,0.3505,0.7185,0.3365,0.4855,0.418,0.125,-0.016,-0.0405
0.054,0.374,0.32,-0.214,-0.133,0.347,0.2015,0.3515,0.7215,0.3395,0.489,0.4225,0.1285,-0.0195,-0.0405
0.0475,0.3655,0.3175,-0.2065,-0.1345,0.3415,0.2065,0.356,0.7265,0.3435,0.493,0.4245,0.13,-0.028,-0.0425
0.0475,0.366,0.318,-0.2065,-0.135,0.3415,0.21,0.3585,0.729,0.347,0.492,0.4235,0.128,-0.0335,-0.0425
0.052,0.37,0.318,-0.211,-0.133,0.3435,0.2055,0.357,0.726,0.3455,0.488,0.419,0.127,-0.041,-0.0405
0.0505,0.364,0.313,-0.207,-0.131,0.338,0.208,0.36,0.7275,0.3465,0.489,0.4215,0.1295,-0.039,-0.0425
0.0415,0.36,0.3185,-0.201,-0.1385,0.339,0.2145,0.365,0.7345,0.3535,0.4955,0.4275,0.13,-0.041,-0.043
0.044,0.3585,0.3145,-0.2015,-0.1345,0.336,0.217,0.367,0.7365,0.356,0.4975,0.426,0.13,-0.042,-0.0445
0.0545,0.36,0.3055,-0.2075,-0.125,0.3325,0.2165,0.368,0.736,0.356,0.4955,0.4245,0.1295,-0.0365,-0.0465
0.0615,0.3625,0.301,-0.212,-0.1195,0.3315,0.215,0.367,0.7375,0.354,0.494,0.4215,0.1295,-0.037,-0.0485
0.0595,0.3645,0.305,-0.2125,-0.1225,0.3345,0.2155,0.3665,0.737,0.353,0.4905,0.416,0.1255,-0.03,-0.0505
0.058,0.371,0.313,-0.2145,-0.1275,0.342,0.2165,0.369,0.7375,0.3535,0.491,0.416,0.124,-0.0265,-0.0515
0.06,0.377,0.3175,-0.2185,-0.1285,0.347,0.2165,0.371,0.7405,0.3535,0.4935,0.4175,0.128,-0.0295,-0.053
0.0565,0.3815,0.3255,-0.219,-0.1345,0.3535,0.2165,0.3705,0.741,0.354,0.4935,0.4155,0.1265,-0.024,-0.054
0.055,0.3845,0.3295,-0.22,-0.137,0.357,0.217,0.3735,0.7435,0.3555,0.4925,0.415,0.126,-0.023,-0.055
0.052,0.3845,0.3325,-0.2185,-0.14,0.3585,0.218,0.375,0.744,0.354,0.491,0.412,0.1235,-0.0215,-0.057
0.0515,0.385,0.3335,-0.2185,-0.1405,0.359,0.2175,0.3755,0.7455,0.353,0.4905,0.409,0.122,-0.019,-0.0575
0.0505,0.388,0.338,-0.219,-0.1435,0.3625,0.217,0.3765,0.7455,0.3525,0.4885,0.4085,0.122,-0.0145,-0.0595
0.056,0.3875,0.3315,-0.2215,-0.1375,0.3595,0.217,0.376,0.7455,0.352,0.488,0.405,0.1215,-0.014,-0.0615
0.051,0.3855,0.3345,-0.2185,-0.141,0.3595,0.2245,0.383,0.7505,0.3585,0.4925,0.409,0.123,-0.016,-0.062
0.045,0.379,0.334,-0.2125,-0.144,0.3565,0.2305,0.387,0.7555,0.3615,0.493,0.4095,0.1225,-0.0115,-0.065
0.0475,0.3775,0.33,-0.2125,-0.141,0.3535,0.231,0.392,0.7595,0.366,0.494,0.4105,0.1235,-0.0185,-0.067
0.0375,0.3775,0.34,-0.2075,-0.151,0.3585,0.2405,0.4,0.768,0.3745,0.5035,0.4185,0.122,-0.021,-0.0695
0.0465,0.375,0.3285,-0.2105,-0.1405,0.3515,0.242,0.3995,0.7695,0.376,0.502,0.418,0.1225,-0.0215,-0.07
0.0435,0.3725,0.329,-0.208,-0.1425,0.3505,0.2415,0.3995,0.768,0.3765,0.5,0.4185,0.125,-0.025,-0.067
0.0335,0.368,0.3345,-0.2005,-0.1505,0.351,0.246,0.405,0.774,0.38,0.505,0.422,0.1255,-0.0275,-0.069
0.0385,0.3665,0.3275,-0.2025,-0.1445,0.347,0.2455,0.408,0.777,0.382,0.505,0.4215,0.1285,-0.025,-0.0715
0.054,0.3585,0.305,-0.2065,-0.125,0.3315,0.241,0.406,0.774,0.379,0.5005,0.4155,0.128,-0.027,-0.07
0.0785,0.353,0.2745,-0.2155,-0.098,0.3135,0.2335,0.3995,0.768,0.3725,0.492,0.4075,0.1265,-0.038,-0.0705
0.0675,0.354,0.2865,-0.2105,-0.1095,0.32,0.2395,0.4035,0.774,0.3755,0.495,0.4105,0.127,-0.041,-0.0745
0.0545,0.36,0.3055,-0.207,-0.125,0.332,0.246,0.4125,0.781,0.381,0.501,0.416,0.126,-0.0395,-0.078
0.052,0.367,0.315,-0.2095,-0.131,0.3405,0.2485,0.4175,0.7825,0.3805,0.5005,0.415,0.1265,-0.0335,-0.0785
0.0415,0.3765,0.335,-0.209,-0.1465,0.3555,0.2505,0.42,0.782,0.377,0.499,0.4115,0.1245,-0.0235,-0.08
0.039,0.3795,0.3405,-0.209,-0.1505,0.3595,0.252,0.4205,0.782,0.376,0.496,0.409,0.1225,-0.02,-0.082
0.038,0.371,0.3335,-0.2045,-0.1475,0.352,0.254,0.424,0.7855,0.376,0.494,0.406,0.12,-0.0245,-0.0845
0.029,0.3715,0.342,-0.2,-0.1565,0.3565,0.257,0.432,0.792,0.3815,0.497,0.409,0.12,-0.028,-0.087
0.0315,0.376,0.3445,-0.204,-0.156,0.36,0.259,0.431,0.79,0.3815,0.494,0.4065,0.1165,-0.0235,-0.0895
0.0455,0.381,0.3355,-0.2135,-0.1445,0.358,0.25,0.424,0.7855,0.3725,0.485,0.396,0.1145,-0.015,-0.0915
0.0305,0.381,0.3505,-0.2055,-0.1595,0.3655,0.2535,0.43,0.789,0.375,0.4865,0.3975,0.1195,-0.011,-0.091
0.048,0.381,0.333,-0.2145,-0.1425,0.357,0.2505,0.4265,0.783,0.3695,0.479,0.3895,0.117,-0.01,-0.093
0.0655,0.3795,0.314,-0.2225,-0.124,0.3465,0.2475,0.4225,0.7795,0.3645,0.474,0.384,0.116,-0.0145,-0.0935
0.042,0.3755,0.3335,-0.209,-0.1455,0.3545,0.259,0.432,0.7855,0.371,0.48,0.39,0.1155,-0.0095,-0.092
0.035,0.3715,0.3365,-0.203,-0.1505,0.354,0.264,0.4385,0.7905,0.3735,0.482,0.39,0.113,-0.01,-0.0945
0.036,0.366,0.3305,-0.201,-0.147,0.348,0.266,0.443,0.793,0.376,0.481,0.3895,0.1115,-0.018,-0.0945
0.0435,0.3645,0.321,-0.204,-0.139,0.3425,0.2655,0.441,0.789,0.372,0.4745,0.3815,0.1075,-0.0155,-0.095
0.035,0.363,0.3275,-0.1985,-0.146,0.345,0.269,0.445,0.7895,0.373,0.476,0.3815,0.106,-0.0135,-0.097
0.024,0.36,0.336,-0.192,-0.1555,0.3475,0.274,0.4515,0.796,0.376,0.4785,0.387,0.108,-0.013,-0.095
0.0235,0.3575,0.334,-0.1905,-0.155,0.345,0.2815,0.4535,0.799,0.376,0.4785,0.386,0.1065,-0.0165,-0.096
0.029,0.359,0.33,-0.194,-0.15,0.344,0.286,0.4555,0.7995,0.3775,0.4785,0.385,0.104,-0.0165,-0.0965
0.039,0.365,0.326,-0.202,-0.1435,0.3455,0.2875,0.4565,0.8005,0.376,0.4755,0.385,0.103,-0.016,-0.098
0.035,0.3745,0.34,-0.2045,-0.152,0.357,0.2895,0.46,0.803,0.377,0.476,0.3875,0.103,-0.018,-0.1005
0.033,0.379,0.346,-0.206,-0.1565,0.3625,0.2895,0.4595,0.804,0.373,0.474,0.3845,0.1005,-0.0105,-0.1005
0.037,0.383,0.346,-0.21,-0.154,0.3645,0.291,0.46,0.8025,0.3695,0.47,0.383,0.0995,-0.0025,-0.102
0.0385,0.384,0.346,-0.211,-0.1535,0.365,0.2865,0.4565,0.797,0.3645,0.4635,0.3795,0.101,-0.0055,-0.102
0.0335,0.383,0.3495,-0.2085,-0.158,0.3665,0.288,0.454,0.7955,0.36,0.46,0.375,0.097,-0.0035,-0.106
0.0355,0.3935,0.358,-0.2145,-0.161,0.3755,0.293,0.459,0.799,0.363,0.462,0.377,0.0965,0.001,-0.107
0.0375,0.3985,0.361,-0.218,-0.1615,0.3795,0.2905,0.458,0.7955,0.358,0.4575,0.3735,0.094,0.0,-0.106
0.029,0.3985,0.369,-0.2135,-0.17,0.3835,0.2925,0.4565,0.7925,0.3535,0.4535,0.3705,0.0915,0.0025,-0.11
0.0235,0.398,0.3745,-0.2105,-0.1755,0.386,0.295,0.454,0.7905,0.3505,0.45,0.3695,0.0895,0.008,-0.112
0.022,0.3985,0.376,-0.21,-0.1765,0.387,0.291,0.4505,0.785,0.348,0.445,0.367,0.0855,0.0125,-0.1115
0.0255,0.4015,0.376,-0.2135,-0.175,0.3885,0.288,0.4475,0.782,0.3435,0.4405,0.3645,0.085,0.009,-0.107
0.041,0.4015,0.3605,-0.2215,-0.1595,0.381,0.283,0.4425,0.774,0.3345,0.433,0.3605,0.084,0.0075,-0.105
0.038,0.3965,0.358,-0.217,-0.1595,0.377,0.2875,0.445,0.7745,0.3355,0.4355,0.3635,0.081,0.003,-0.103
0.019,0.3875,0.3685,-0.203,-0.1745,0.3775,0.297,0.449,0.7775,0.338,0.441,0.3705,0.078,0.001,-0.1015
0.0225,0.39,0.3675,-0.206,-0.1725,0.3785,0.295,0.445,0.7705,0.333,0.436,0.3705,0.0775,0.0025,-0.1005
0.026,0.3925,0.366,-0.2095,-0.1695,0.379,0.291,0.439,0.763,0.3245,0.4295,0.367,0.0755,0.002,-0.0985
0.024,0.3905,0.3665,-0.2075,-0.171,0.3785,0.289,0.4345,0.755,0.317,0.4255,0.365,0.074,0.0035,-0.095
0.022,0.391,0.3695,-0.2065,-0.1735,0.38,0.2905,0.4335,0.752,0.315,0.424,0.366,0.0725,0.0085,-0.091
0.018,0.391,0.3735,-0.2045,-0.1775,0.382,0.293,0.4295,0.749,0.3105,0.4205,0.367,0.069,0.015,-0.0895
0.01,0.396,0.3855,-0.203,-0.1875,0.3905,0.294,0.4275,0.7445,0.305,0.4175,0.3675,0.068,0.0175,-0.085
0.005,0.3995,0.3945,-0.202,-0.1945,0.3965,0.29,0.422,0.7385,0.299,0.4125,0.3655,0.0665,0.026,-0.083
0.004,0.4055,0.4015,-0.205,-0.1985,0.403,0.2895,0.4155,0.7325,0.2925,0.4075,0.365,0.064,0.0245,-0.082
0.0075,0.4125,0.405,-0.21,-0.1985,0.4085,0.2895,0.4095,0.725,0.2855,0.4035,0.364,0.063,0.0235,-0.0785
-0.006,0.417,0.423,-0.2055,-0.2145,0.4195,0.2865,0.4055,0.7215,0.282,0.4025,0.364,0.0615,0.0335,-0.0755
0.004,0.4225,0.4185,-0.213,-0.207,0.42,0.276,0.3905,0.7065,0.2675,0.3905,0.3575,0.0585,0.047,-0.074
0.0345,0.4285,0.3935,-0.2315,-0.179,0.4105,0.2595,0.369,0.6845,0.246,0.372,0.3415,0.055,0.058,-0.0715
0.0235,0.435,0.412,-0.229,-0.194,0.423,0.257,0.366,0.679,0.24,0.3695,0.3435,0.0555,0.0515,-0.0655
0.016,0.44,0.424,-0.228,-0.204,0.432,0.2555,0.361,0.6725,0.235,0.3675,0.3485,0.056,0.053,-0.062
0.0005,0.4395,0.439,-0.22,-0.219,0.439,0.2595,0.359,0.6695,0.2335,0.3675,0.352,0.053,0.059,-0.0585
0.0035,0.4415,0.438,-0.2225,-0.217,0.4395,0.256,0.3505,0.6585,0.224,0.36,0.35,0.0515,0.058,-0.0535
0.011,0.443,0.432,-0.227,-0.21,0.4375,0.2505,0.338,0.646,0.214,0.3515,0.346,0.049,0.057,-0.0495
-0.005,0.443,0.448,-0.219,-0.2265,0.4455,0.2545,0.335,0.6425,0.2125,0.3525,0.3505,0.0465,0.058,-0.0485
-0.003,0.4385,0.442,-0.218,-0.222,0.44,0.2485,0.3255,0.632,0.2045,0.348,0.3495,0.043,0.0635,-0.0475
0.0005,0.4355,0.435,-0.218,-0.217,0.435,0.249,0.318,0.6225,0.197,0.343,0.3485,0.0425,0.072,-0.0455
0.0105,0.4405,0.43,-0.2255,-0.2095,0.435,0.2435,0.308,0.6125,0.1885,0.3375,0.349,0.0435,0.0725,-0.043
0.012,0.4425,0.4305,-0.2275,-0.209,0.4365,0.234,0.298,0.603,0.1805,0.332,0.3485,0.0405,0.0695,-0.041
0.006,0.4435,0.4375,-0.225,-0.2155,0.4405,0.238,0.293,0.5965,0.175,0.331,0.3515,0.0385,0.071,-0.0375
0.007,0.4465,0.44,-0.227,-0.2165,0.443,0.2315,0.2845,0.588,0.1655,0.328,0.3525,0.039,0.073,-0.0325
0.003,0.4495,0.4465,-0.2265,-0.2215,0.4475,0.226,0.2785,0.5805,0.1595,0.325,0.355,0.0395,0.0755,-0.029
-0.006,0.453,0.459,-0.2235,-0.232,0.4555,0.2275,0.27,0.571,0.1515,0.3205,0.3565,0.0365,0.0815,-0.0245
-0.011,0.453,0.464,-0.221,-0.237,0.458,0.2225,0.2565,0.5575,0.139,0.3135,0.3535,0.0355,0.093,-0.0215
-0.0055,0.4585,0.464,-0.2265,-0.2345,0.461,0.214,0.2455,0.5465,0.1295,0.309,0.3495,0.0375,0.1,-0.0185
-0.0035,0.4675,0.471,-0.232,-0.237,0.469,0.2085,0.237,0.5365,0.121,0.305,0.35,0.0365,0.101,-0.015
-0.004,0.471,0.475,-0.2335,-0.2395,0.473,0.2045,0.228,0.5265,0.1125,0.299,0.352,0.037,0.1,-0.01
-0.0055,0.4785,0.484,-0.2365,-0.245,0.481,0.1995,0.217,0.515,0.1015,0.2935,0.3515,0.032,0.1095,-0.007
-0.012,0.485,0.497,-0.2365,-0.2545,0.491,0.1925,0.205,0.5045,0.093,0.288,0.3495,0.027,0.121,-0.002
-0.0095,0.4815,0.4905,-0.236,-0.25,0.486,0.1845,0.196,0.496,0.087,0.2845,0.35,0.0285,0.115,0.0055
-0.004,0.479,0.4825,-0.2375,-0.2435,0.4805,0.182,0.1885,0.487,0.0785,0.281,0.348,0.0235,0.11,0.008
-0.0035,0.482,0.4855,-0.239,-0.245,0.484,0.178,0.176,0.475,0.069,0.2735,0.343,0.0195,0.117,0.011
-0.0035,0.484,0.487,-0.24,-0.2455,0.486,0.1735,0.167,0.466,0.063,0.2705,0.347,0.023,0.1145,0.0155
-0.0095,0.4855,0.494,-0.238,-0.2515,0.4895,0.1675,0.158,0.455,0.0545,0.2665,0.351,0.0235,0.116,0.02
-0.015,0.4855,0.5,-0.2355,-0.2575,0.4925,0.164,0.148,0.4455,0.0475,0.262,0.349,0.0195,0.1225,0.0225
-0.0115,0.484,0.495,-0.236,-0.253,0.4895,0.16,0.142,0.439,0.0425,0.26,0.3485,0.0175,0.115,0.026
-0.011,0.48,0.4905,-0.235,-0.2505,0.4855,0.158,0.136,0.4305,0.0385,0.257,0.35,0.0155,0.112,0.031
-0.0095,0.478,0.487,-0.2345,-0.248,0.4825,0.16,0.13,0.424,0.0345,0.256,0.35,0.0115,0.111,0.034
-0.0075,0.478,0.485,-0.2355,-0.246,0.4815,0.1525,0.1195,0.4125,0.026,0.2495,0.347,0.009,0.109,0.039
-0.015,0.4735,0.488,-0.2295,-0.2515,0.481,0.1465,0.1105,0.404,0.021,0.2445,0.346,0.009,0.109,0.0425
-0.018,0.4735,0.491,-0.2275,-0.2545,0.482,0.1445,0.104,0.3985,0.016,0.243,0.3465,0.0065,0.1105,0.047
-0.0185,0.4735,0.4915,-0.2275,-0.255,0.4825,0.1435,0.0985,0.392,0.0105,0.2415,0.347,0.003,0.1145,0.0495
-0.022,0.472,0.494,-0.225,-0.258,0.483,0.137,0.0905,0.3845,0.0045,0.237,0.3445,0.001,0.1115,0.052
-0.0215,0.477,0.498,-0.228,-0.2595,0.4875,0.1325,0.0845,0.3775,-0.003,0.234,0.342,-0.0005,0.109,0.0565
-0.022,0.4805,0.502,-0.229,-0.262,0.4915,0.1325,0.0785,0.3715,-0.0065,0.2345,0.3415,-0.003,0.1125,0.059
-0.022,0.486,0.5075,-0.232,-0.265,0.497,0.124,0.0695,0.3635,-0.014,0.229,0.339,-0.0005,0.117,0.063
0.0,0.4915,0.491,-0.2455,-0.2455,0.491,0.111,0.0555,0.3515,-0.026,0.2195,0.3295,-0.001,0.118,0.0655
0.0015,0.4935,0.4915,-0.2475,-0.245,0.492,0.106,0.046,0.342,-0.0315,0.2145,0.324,-0.0045,0.1245,0.067
-0.017,0.4965,0.513,-0.2395,-0.265,0.505,0.108,0.046,0.341,-0.03,0.218,0.329,-0.004,0.129,0.069
-0.013,0.4965,0.509,-0.2415,-0.261,0.5025,0.0975,0.0365,0.3305,-0.0385,0.2115,0.3225,-0.0065,0.1255,0.0725
-0.013,0.4975,0.51,-0.2425,-0.2615,0.5035,0.089,0.027,0.3225,-0.045,0.2035,0.3185,-0.006,0.1275,0.0765
-0.0205,0.4915,0.5115,-0.2355,-0.266,0.5015,0.093,0.026,0.3235,-0.0415,0.2105,0.3245,-0.008,0.1215,0.076
-0.03,0.4845,0.514,-0.2275,-0.272,0.4995,0.093,0.025,0.3215,-0.0405,0.2135,0.329,-0.0075,0.1175,0.079
-0.0265,0.4865,0.513,-0.23,-0.27,0.5,0.089,0.019,0.3155,-0.0455,0.2085,0.327,-0.006,0.121,0.0825
-0.024,0.4835,0.507,-0.2295,-0.266,0.4955,0.086,0.011,0.3085,-0.0535,0.2035,0.3235,-0.0085,0.1205,0.085
-0.0305,0.4745,0.5045,-0.222,-0.2675,0.4895,0.088,0.0115,0.307,-0.054,0.2035,0.325,-0.0115,0.112,0.0885
-0.0305,0.471,0.501,-0.22,-0.266,0.486,0.091,0.0125,0.3075,-0.0525,0.2045,0.3255,-0.0135,0.102,0.0905
-0.036,0.468,0.5035,-0.216,-0.2695,0.4855,0.092,0.0115,0.3065,-0.052,0.2065,0.328,-0.014,0.105,0.09
-0.0355,0.4605,0.4955,-0.2125,-0.2655,0.478,0.085,0.0055,0.3015,-0.055,0.205,0.325,-0.013,0.1025,0.091
-0.032,0.4555,0.487,-0.2115,-0.2595,0.471,0.08,0.0,0.2985,-0.056,0.2035,0.3225,-0.011,0.0975,0.094
-0.0325,0.454,0.486,-0.211,-0.259,0.47,0.079,-0.001,0.2965,-0.0585,0.2045,0.3235,-0.013,0.0995,0.094
-0.0325,0.445,0.4765,-0.2065,-0.2545,0.461,0.0745,-0.005,0.2915,-0.062,0.203,0.3215,-0.0095,0.0945,0.096
-0.034,0.4405,0.474,-0.2035,-0.254,0.4575,0.0755,-0.005,0.2935,-0.059,0.2055,0.3255,-0.007,0.0935,0.098
-0.0395,0.445,0.484,-0.203,-0.262,0.4645,0.075,-0.004,0.295,-0.0585,0.207,0.3285,-0.0065,0.0965,0.1005
-0.052,0.448,0.4995,-0.198,-0.276,0.474,0.0755,-0.002,0.297,-0.056,0.2095,0.33,-0.007,0.0965,0.1025
-0.063,0.4545,0.517,-0.196,-0.29,0.4855,0.0775,0.0,0.3,-0.052,0.2145,0.3325,-0.007,0.097,0.1005
-0.0655,0.454,0.519,-0.1945,-0.292,0.4865,0.074,-0.0035,0.297,-0.0545,0.2125,0.328,-0.0085,0.099,0.1025
-0.076,0.455,0.5305,-0.189,-0.3035,0.4925,0.0755,-0.0025,0.298,-0.0525,0.2155,0.333,-0.008,0.102,0.1045
-0.0855,0.4575,0.5425,-0.186,-0.314,0.5,0.078,0.0005,0.3005,-0.0495,0.22,0.341,-0.004,0.1055,0.105
-0.052,0.4585,0.5095,-0.2035,-0.2805,0.484,0.0665,-0.0115,0.2885,-0.063,0.207,0.325,-0.007,0.1055,0.1045
0.0055,0.4565,0.4505,-0.231,-0.2225,0.4535,0.0455,-0.0335,0.268,-0.0835,0.186,0.3055,-0.008,0.1025,0.1035
0.004,0.4565,0.4525,-0.2305,-0.224,0.4545,0.0415,-0.0355,0.2675,-0.0815,0.1865,0.3075,-0.0055,0.101,0.105
-0.032,0.4545,0.486,-0.2115,-0.259,0.47,0.051,-0.024,0.278,-0.0705,0.1985,0.3185,-0.0055,0.0965,0.1075
-0.038,0.4495,0.487,-0.2055,-0.2625,0.468,0.051,-0.022,0.279,-0.0685,0.2,0.319,-0.007,0.0975,0.1085
-0.0215,0.45,0.471,-0.214,-0.246,0.4605,0.046,-0.0275,0.274,-0.071,0.1975,0.316,-0.0035,0.097,0.109
-0.022,0.443,0.465,-0.2105,-0.2435,0.454,0.0485,-0.025,0.277,-0.069,0.202,0.321,-0.002,0.0915,0.1085
-0.0215,0.438,0.4595,-0.208,-0.24,0.4485,0.048,-0.027,0.276,-0.0685,0.2005,0.319,-0.0025,0.087,0.1085
-0.0065,0.435,0.4415,-0.214,-0.224,0.438,0.045,-0.0285,0.2735,-0.069,0.198,0.317,0.0005,0.0745,0.11
-0.022,0.431,0.453,-0.2045,-0.2375,0.4415,0.0505,-0.0215,0.281,-0.06,0.2075,0.3255,0.0015,0.0715,0.1115
-0.0285,0.427,0.4555,-0.199,-0.242,0.441,0.053,-0.021,0.2815,-0.0605,0.208,0.325,0.001,0.0765,0.11
-0.0165,0.4255,0.442,-0.2045,-0.229,0.4335,0.052,-0.0195,0.2825,-0.06,0.21,0.3255,0.002,0.0715,0.108
-0.0105,0.4255,0.436,-0.2075,-0.223,0.4305,0.047,-0.0205,0.2835,-0.0585,0.211,0.327,0.003,0.0645,0.109
-0.011,0.426,0.437,-0.2075,-0.2235,0.431,0.047,-0.0225,0.281,-0.0605,0.2095,0.325,0.002,0.0715,0.1095
-0.013,0.4315,0.4445,-0.209,-0.2285,0.438,0.0515,-0.019,0.285,-0.056,0.213,0.327,0.001,0.079,0.1055
-0.013,0.4325,0.4455,-0.2095,-0.229,0.439,0.0515,-0.017,0.2875,-0.0545,0.214,0.3285,0.0035,0.077,0.1055
-0.0145,0.4385,0.4525,-0.212,-0.233,0.445,0.0505,-0.02,0.2855,-0.0555,0.2135,0.326,0.005,0.08,0.105
-0.0155,0.446,0.462,-0.2155,-0.2385,0.4535,0.0495,-0.019,0.288,-0.0545,0.2155,0.325,0.004,0.086,0.1035
-0.0175,0.4435,0.4615,-0.213,-0.239,0.4525,0.0495,-0.0175,0.289,-0.054,0.217,0.326,0.003,0.0845,0.105
-0.0165,0.4385,0.4545,-0.211,-0.235,0.446,0.0475,-0.0195,0.288,-0.0525,0.216,0.325,0.0035,0.0765,0.1045
-0.015,0.4395,0.4545,-0.2125,-0.2345,0.447,0.0455,-0.019,0.2885,-0.0535,0.2145,0.3225,0.003,0.081,0.104
-0.0145,0.444,0.4585,-0.2145,-0.2365,0.451,0.046,-0.019,0.2875,-0.054,0.2145,0.323,0.003,0.0875,0.102
-0.016,0.444,0.4605,-0.214,-0.238,0.452,0.0455,-0.0195,0.2865,-0.053,0.2125,0.321,0.0025,0.0825,0.1005
-0.022,0.4445,0.4665,-0.2115,-0.244,0.4555,0.0485,-0.0165,0.2885,-0.0505,0.215,0.3235,0.0015,0.078,0.1005
-0.0195,0.444,0.463,-0.2125,-0.241,0.4535,0.05,-0.014,0.2925,-0.046,0.218,0.325,0.0025,0.072,0.101
-0.0235,0.4395,0.463,-0.208,-0.243,0.451,0.051,-0.011,0.294,-0.0435,0.2175,0.325,0.0035,0.072,0.1015
-0.0215,0.4335,0.455,-0.206,-0.238,0.444,0.052,-0.009,0.2955,-0.041,0.2235,0.328,0.0045,0.0695,0.1015
-0.005,0.4355,0.441,-0.2155,-0.2225,0.438,0.0475,-0.013,0.293,-0.043,0.2185,0.3255,0.005,0.061,0.101
-0.0135,0.4325,0.446,-0.209,-0.2295,0.4385,0.0485,-0.01,0.2955,-0.041,0.22,0.3285,0.0055,0.0645,0.103
-0.021,0.425,0.446,-0.202,-0.233,0.4355,0.0525,-0.0075,0.299,-0.0355,0.2275,0.3325,0.0065,0.0695,0.102
-0.0205,0.4255,0.446,-0.2025,-0.233,0.4355,0.055,-0.0065,0.301,-0.033,0.2285,0.3325,0.0065,0.066,0.1005
-0.02,0.4235,0.4435,-0.2015,-0.2315,0.433,0.0555,-0.003,0.3035,-0.0315,0.2325,0.3335,0.0075,0.0635,0.1015
-0.008,0.4225,0.4305,-0.207,-0.219,0.4265,0.0525,-0.0075,0.2995,-0.034,0.2295,0.33,0.006,0.0635,0.0995
-0.0075,0.427,0.4345,-0.2095,-0.221,0.4305,0.049,-0.009,0.3,-0.033,0.228,0.3275,0.006,0.0635,0.0995
-0.018,0.4265,0.4445,-0.204,-0.231,0.435,0.0525,-0.002,0.306,-0.027,0.235,0.3335,0.0095,0.0615,0.099
-0.0075,0.427,0.4345,-0.21,-0.2205,0.4305,0.05,-0.0045,0.3045,-0.03,0.233,0.3315,0.0115,0.063,0.098
-0.003,0.4345,0.4375,-0.216,-0.22,0.436,0.046,-0.008,0.301,-0.0335,0.228,0.3275,0.0135,0.0665,0.0975
-0.015,0.436,0.451,-0.2105,-0.2325,0.443,0.05,-0.0045,0.3045,-0.0305,0.2305,0.33,0.0125,0.071,0.097
-0.0135,0.441,0.4545,-0.214,-0.2335,0.4475,0.0485,-0.0055,0.3055,-0.03,0.232,0.3285,0.011,0.0675,0.095
-0.0125,0.4435,0.456,-0.2155,-0.234,0.4495,0.0475,-0.0075,0.3035,-0.0315,0.229,0.3245,0.01,0.068,0.0955
-0.0135,0.4485,0.462,-0.2175,-0.2375,0.455,0.0465,-0.0075,0.3025,-0.0335,0.2275,0.3235,0.01,0.082,0.095
-0.0095,0.4535,0.463,-0.222,-0.236,0.4575,0.043,-0.01,0.3005,-0.0345,0.2265,0.3235,0.011,0.0795,0.093
-0.009,0.4505,0.4595,-0.2205,-0.234,0.4545,0.0455,-0.008,0.302,-0.0335,0.226,0.3235,0.01,0.076,0.0925
-0.0155,0.4505,0.466,-0.2175,-0.2405,0.458,0.0505,-0.004,0.305,-0.0295,0.229,0.3265,0.0085,0.075,0.0935
-0.014,0.447,0.461,-0.2165,-0.2375,0.454,0.05,-0.0045,0.304,-0.031,0.2285,0.3245,0.009,0.0715,0.0945
-0.012,0.4435,0.456,-0.2155,-0.234,0.4495,0.051,-0.001,0.308,-0.0275,0.2325,0.3275,0.011,0.0705,0.095
-0.0215,0.4325,0.4535,-0.2055,-0.2375,0.4425,0.057,0.0035,0.3125,-0.022,0.236,0.333,0.0085,0.065,0.0965
-0.0315,0.428,0.4595,-0.198,-0.245,0.443,0.06,0.0055,0.3135,-0.019,0.238,0.3325,0.0075,0.0625,0.096
-0.034,0.4255,0.4595,-0.1955,-0.246,0.442,0.0605,0.0085,0.3165,-0.0165,0.241,0.3355,0.01,0.0615,0.0965
-0.032,0.419,0.4515,-0.1935,-0.2415,0.435,0.063,0.0095,0.3195,-0.0155,0.242,0.338,0.01,0.057,0.0975
-0.0215,0.4215,0.443,-0.2,-0.232,0.432,0.061,0.0065,0.3175,-0.0165,0.241,0.335,0.0105,0.057,0.0965
-0.0125,0.4155,0.428,-0.2015,-0.22,0.4215,0.056,0.0015,0.3135,-0.0215,0.2355,0.3305,0.009,0.0595,0.096
-0.017,0.4165,0.4335,-0.2,-0.225,0.425,0.0595,0.004,0.317,-0.019,0.2405,0.3335,0.0095,0.056,0.095
-0.004,0.4225,0.426,-0.209,-0.215,0.424,0.0575,0.0015,0.314,-0.023,0.237,0.3315,0.0105,0.0605,0.096
-0.0015,0.419,0.421,-0.209,-0.211,0.42,0.0535,-0.003,0.312,-0.025,0.2335,0.329,0.011,0.055,0.0955
-0.017,0.42,0.437,-0.2015,-0.2265,0.428,0.057,0.0015,0.3175,-0.0215,0.24,0.3325,0.011,0.051,0.0935
-0.0205,0.4245,0.445,-0.202,-0.2325,0.4345,0.0555,0.0025,0.316,-0.0245,0.2395,0.332,0.0105,0.0645,0.0925
-0.0175,0.426,0.443,-0.2045,-0.23,0.434,0.0535,-0.0005,0.3115,-0.0275,0.235,0.3285,0.011,0.063,0.0895
-0.0175,0.4285,0.446,-0.2055,-0.2315,0.437,0.0535,0.0,0.3115,-0.028,0.2335,0.326,0.009,0.0605,0.0865
-0.017,0.4335,0.451,-0.208,-0.234,0.442,0.0555,0.002,0.3155,-0.025,0.2355,0.329,0.009,0.061,0.0855
-0.019,0.4385,0.4575,-0.2095,-0.238,0.4475,0.0525,0.0,0.314,-0.0255,0.2345,0.328,0.01,0.0665,0.0885
-0.023,0.4395,0.4625,-0.208,-0.2425,0.4505,0.0495,0.0,0.3125,-0.028,0.235,0.3265,0.0085,0.072,0.0875
-0.0215,0.4395,0.4605,-0.209,-0.241,0.4495,0.0525,0.001,0.3145,-0.026,0.237,0.328,0.0075,0.071,0.085
-0.017,0.439,0.456,-0.211,-0.236,0.447,0.053,0.002,0.315,-0.0235,0.2365,0.3275,0.0075,0.066,0.087
-0.018,0.437,0.455,-0.2095,-0.2365,0.4455,0.0515,0.0,0.3145,-0.0235,0.235,0.3275,0.006,0.0605,0.0855
-0.0085,0.4375,0.446,-0.2145,-0.227,0.4415,0.0485,-0.0035,0.3115,-0.0285,0.231,0.323,0.0055,0.0635,0.0865
0.0035,0.432,0.4285,-0.2175,-0.2125,0.43,0.0495,-0.0045,0.3095,-0.029,0.2315,0.3225,0.0065,0.061,0.0875
-0.0065,0.427,0.4335,-0.2105,-0.2195,0.4295,0.054,-0.001,0.315,-0.023,0.238,0.3295,0.0055,0.064,0.0875
-0.0105,0.4255,0.436,-0.2075,-0.223,0.4305,0.059,0.0035,0.319,-0.017,0.2425,0.334,0.008,0.055,0.089
-0.019,0.4225,0.4415,-0.2015,-0.23,0.4315,0.0635,0.009,0.3255,-0.0105,0.248,0.3405,0.007,0.048,0.0885
-0.025,0.4225,0.4475,-0.199,-0.236,0.4345,0.0655,0.014,0.3285,-0.0085,0.2515,0.3415,0.005,0.0515,0.087
-0.028,0.42,0.448,-0.196,-0.2375,0.4335,0.0665,0.0135,0.3275,-0.0065,0.252,0.3445,0.008,0.0495,0.089
-0.031,0.4145,0.4455,-0.192,-0.238,0.43,0.065,0.012,0.328,-0.0085,0.252,0.3455,0.008,0.0525,0.0905
-0.0295,0.416,0.4455,-0.193,-0.2375,0.4305,0.0615,0.0095,0.3245,-0.0135,0.247,0.34,0.0065,0.0525,0.09
-0.0085,0.42,0.4285,-0.206,-0.2185,0.424,0.0515,-0.001,0.316,-0.023,0.2385,0.33,0.006,0.055,0.0905
0.0055,0.4245,0.419,-0.215,-0.2065,0.4215,0.049,-0.0045,0.3125,-0.0265,0.2345,0.3265,0.0065,0.057,0.091
-0.0025,0.432,0.4345,-0.215,-0.218,0.433,0.051,-0.0035,0.3125,-0.026,0.234,0.327,0.0055,0.0595,0.091
0.0015,0.431,0.429,-0.2165,-0.2135,0.43,0.0465,-0.0075,0.3085,-0.0305,0.23,0.3245,0.0075,0.06,0.0895
-0.005,0.4315,0.4365,-0.213,-0.2205,0.4335,0.048,-0.0055,0.309,-0.029,0.2305,0.3285,0.0095,0.061,0.0895
-0.027,0.4375,0.4645,-0.205,-0.2455,0.451,0.0555,0.0025,0.316,-0.0225,0.238,0.335,0.008,0.061,0.0905
-0.039,0.4385,0.477,-0.1995,-0.258,0.458,0.058,0.0045,0.318,-0.021,0.2405,0.336,0.007,0.062,0.0905
-0.0275,0.44,0.468,-0.206,-0.2475,0.454,0.048,-0.004,0.3095,-0.03,0.233,0.3285,0.005,0.066,0.09
-0.026,0.4385,0.4645,-0.2065,-0.2455,0.4515,0.046,-0.0065,0.3075,-0.031,0.229,0.3255,0.0025,0.069,0.088
-0.0395,0.441,0.4795,-0.201,-0.2595,0.46,0.052,-0.002,0.313,-0.0265,0.2335,0.3305,0.004,0.076,0.0895
-0.0325,0.4415,0.474,-0.2045,-0.253,0.458,0.051,-0.001,0.311,-0.0265,0.234,0.331,0.005,0.0755,0.0905
0.024,0.4425,0.4185,-0.2335,-0.197,0.4305,0.0335,-0.0195,0.2925,-0.045,0.215,0.3105,0.0035,0.0765,0.0895
0.032,0.4415,0.4095,-0.237,-0.1885,0.4255,0.03,-0.0245,0.2895,-0.048,0.212,0.309,0.003,0.0755,0.09
-0.0015,0.4395,0.441,-0.219,-0.221,0.44,0.0415,-0.014,0.3,-0.035,0.222,0.321,0.0025,0.0715,0.091
0.005,0.4415,0.436,-0.2235,-0.215,0.4385,0.043,-0.0135,0.299,-0.035,0.223,0.323,0.005,0.0685,0.0915
0.007,0.4265,0.4195,-0.2165,-0.206,0.4225,0.0505,-0.0055,0.305,-0.0285,0.2305,0.3295,0.005,0.058,0.0925
0.0025,0.4155,0.4135,-0.209,-0.205,0.414,0.0525,-0.0035,0.309,-0.0255,0.234,0.329,0.0045,0.0535,0.0935
-0.0035,0.414,0.418,-0.205,-0.2105,0.416,0.051,-0.004,0.307,-0.0265,0.2355,0.3295,0.005,0.0525,0.0935
-0.005,0.415,0.42,-0.2045,-0.2125,0.417,0.0535,-0.003,0.31,-0.025,0.2375,0.333,0.006,0.0515,0.0945
-0.007,0.42,0.427,-0.2065,-0.217,0.4235,0.055,-0.004,0.311,-0.0245,0.238,0.3335,0.007,0.056,0.0945
-0.0065,0.4235,0.4295,-0.2085,-0.218,0.4265,0.0525,-0.0045,0.308,-0.026,0.236,0.331,0.0045,0.0575,0.093
-0.003,0.4275,0.4305,-0.212,-0.2165,0.4285,0.0495,-0.005,0.3065,-0.03,0.2325,0.3325,0.005,0.0575,0.0945
-0.004,0.4355,0.4395,-0.2155,-0.2215,0.437,0.047,-0.0075,0.303,-0.0325,0.2325,0.331,0.0055,0.0645,0.0955
-0.004,0.4425,0.447,-0.219,-0.2255,0.4445,0.046,-0.0085,0.3035,-0.032,0.2345,0.33,0.007,0.071,0.0925
-0.007,0.443,0.45,-0.218,-0.228,0.446,0.045,-0.0085,0.303,-0.032,0.232,0.33,0.008,0.072,0.092
-0.007,0.4445,0.4515,-0.2185,-0.229,0.448,0.042,-0.0105,0.3005,-0.0345,0.2295,0.328,0.0065,0.073,0.093
-0.008,0.4425,0.4505,-0.2175,-0.229,0.4465,0.0425,-0.0115,0.3005,-0.035,0.229,0.33,0.0055,0.0705,0.0955
-0.006,0.442,0.4485,-0.2185,-0.227,0.445,0.0435,-0.013,0.2985,-0.035,0.229,0.329,0.005,0.0715,0.095
0.004,0.4485,0.4445,-0.226,-0.22,0.4465,0.0405,-0.016,0.2965,-0.037,0.226,0.3255,0.006,0.071,0.0955
0.006,0.45,0.4435,-0.228,-0.218,0.4465,0.0375,-0.0165,0.2945,-0.04,0.224,0.3235,0.0045,0.0715,0.097
0.0055,0.448,0.4425,-0.227,-0.2185,0.445,0.0385,-0.0155,0.295,-0.038,0.226,0.327,0.0055,0.071,0.098
0.005,0.448,0.4435,-0.2265,-0.219,0.4455,0.0405,-0.015,0.298,-0.0365,0.2275,0.33,0.0065,0.0635,0.0995
-0.0005,0.443,0.444,-0.221,-0.222,0.443,0.047,-0.011,0.2995,-0.0325,0.2335,0.3325,0.005,0.0635,0.099
0.001,0.439,0.438,-0.22,-0.218,0.4385,0.0465,-0.011,0.299,-0.0305,0.234,0.334,0.0055,0.067,0.101
0.002,0.4365,0.4345,-0.219,-0.216,0.435,0.0425,-0.0125,0.299,-0.0325,0.2335,0.333,0.007,0.0615,0.102
-0.003,0.4305,0.4335,-0.2135,-0.2185,0.432,0.0445,-0.012,0.298,-0.03,0.2345,0.3345,0.007,0.061,0.1015
-0.0055,0.4275,0.4325,-0.211,-0.219,0.4295,0.044,-0.012,0.2975,-0.031,0.234,0.336,0.006,0.0595,0.102
-0.009,0.424,0.433,-0.2075,-0.2205,0.428,0.043,-0.013,0.298,-0.0325,0.234,0.336,0.0065,0.056,0.104
-0.01,0.4255,0.435,-0.208,-0.222,0.43,0.045,-0.012,0.299,-0.0305,0.235,0.3365,0.0075,0.0535,0.104
-0.0045,0.427,0.4315,-0.211,-0.2175,0.4285,0.0435,-0.0105,0.298,-0.0315,0.2345,0.335,0.0075,0.0495,0.1025
-0.0035,0.431,0.434,-0.2135,-0.2185,0.432,0.0415,-0.013,0.2955,-0.035,0.231,0.331,0.0055,0.06,0.102
0.001,0.438,0.437,-0.2195,-0.218,0.4375,0.043,-0.012,0.2985,-0.034,0.2325,0.337,0.008,0.0635,0.1005
-0.0025,0.4405,0.443,-0.219,-0.2225,0.4415,0.04,-0.015,0.2945,-0.037,0.232,0.3375,0.011,0.0655,0.1005
-0.0065,0.4385,0.4455,-0.216,-0.2255,0.4415,0.0355,-0.019,0.2905,-0.04,0.229,0.3325,0.009,0.07,0.102
0.0015,0.441,0.44,-0.2215,-0.219,0.44,0.035,-0.0195,0.2915,-0.0405,0.2295,0.3315,0.0085,0.0705,0.101
0.0025,0.446,0.4435,-0.224,-0.2205,0.4445,0.034,-0.02,0.2905,-0.043,0.23,0.331,0.0085,0.078,0.102
-0.002,0.446,0.4485,-0.222,-0.225,0.447,0.0315,-0.021,0.2905,-0.044,0.228,0.331,0.0075,0.0785,0.1035
-0.0175,0.4465,0.464,-0.2145,-0.2405,0.455,0.0385,-0.017,0.2935,-0.04,0.231,0.335,0.0065,0.078,0.1025
