i,ii,iii,avr,avl,avf,v1,v2,v3,v4,v5,v6,vx,vy,vz
-0.212,0.859,1.071,-0.3235,-0.641,0.965,0.3215,0.203,0.0555,-0.094,-0.151,-0.2665,-0.189,0.395,-0.112
-0.1955,0.85,1.0455,-0.327,-0.62,0.948,0.38,0.27,0.1195,-0.0365,-0.1235,-0.256,-0.1645,0.374,-0.139
-0.184,0.8545,1.0385,-0.335,-0.611,0.9465,0.4315,0.3335,0.1935,0.03,-0.085,-0.2355,-0.134,0.389,-0.1655
-0.1605,0.863,1.0235,-0.351,-0.5915,0.9435,0.463,0.3795,0.2505,0.0875,-0.0475,-0.213,-0.1035,0.3925,-0.1895
-0.136,0.862,0.998,-0.363,-0.5665,0.93,0.5165,0.4425,0.317,0.1445,-0.018,-0.2015,-0.077,0.372,-0.2175
-0.1175,0.8825,1.0005,-0.3825,-0.5585,0.9415,0.5665,0.4985,0.406,0.2295,0.031,-0.1765,-0.046,0.39,-0.247
-0.0985,0.9,0.999,-0.4005,-0.5485,0.9495,0.6295,0.581,0.5175,0.336,0.097,-0.1385,-0.003,0.4105,-0.284
-0.0705,0.923,0.9935,-0.4265,-0.5315,0.9585,0.697,0.675,0.633,0.4455,0.166,-0.0985,0.047,0.425,-0.321
-0.0365,0.9655,1.002,-0.4645,-0.5185,0.984,0.759,0.78,0.7775,0.5745,0.2415,-0.058,0.101,0.4545,-0.364
0.0085,1.012,1.0035,-0.5105,-0.497,1.008,0.8065,0.893,0.9585,0.738,0.34,-0.0035,0.168,0.483,-0.4305
0.0465,1.0475,1.001,-0.547,-0.4775,1.0245,0.8705,1.012,1.1385,0.9,0.432,0.047,0.2285,0.508,-0.4915
0.077,1.066,0.989,-0.571,-0.456,1.027,0.9615,1.1565,1.327,1.058,0.508,0.0855,0.2825,0.522,-0.545
0.103,1.1055,1.0025,-0.6045,-0.4495,1.054,1.0465,1.2875,1.5055,1.2085,0.5875,0.1285,0.3275,0.557,-0.6145
0.1275,1.1305,1.003,-0.629,-0.4375,1.0665,1.152,1.4425,1.695,1.352,0.654,0.163,0.367,0.579,-0.676
0.1525,1.1425,0.9905,-0.6475,-0.419,1.0665,1.219,1.5645,1.863,1.484,0.7175,0.194,0.41,0.5835,-0.7305
0.1825,1.1805,0.998,-0.6815,-0.4075,1.0895,1.2425,1.6485,2.0055,1.607,0.7815,0.228,0.456,0.6015,-0.7835
0.2165,1.2255,1.0085,-0.721,-0.396,1.117,1.217,1.6955,2.1085,1.6985,0.8415,0.2685,0.502,0.63,-0.806
0.225,1.2605,1.035,-0.743,-0.4045,1.1475,1.1495,1.6795,2.134,1.727,0.883,0.3035,0.5315,0.682,-0.794
0.229,1.2735,1.044,-0.751,-0.4075,1.159,1.0705,1.617,2.099,1.693,0.8915,0.324,0.5435,0.705,-0.757
0.231,1.2915,1.06,-0.761,-0.414,1.1755,0.964,1.5085,2.021,1.6165,0.873,0.331,0.53,0.7265,-0.717
0.2145,1.2905,1.0755,-0.752,-0.4305,1.183,0.8445,1.3605,1.8925,1.4955,0.8195,0.3175,0.4945,0.7405,-0.6595
0.1755,1.239,1.0635,-0.7075,-0.4435,1.151,0.704,1.171,1.6955,1.305,0.729,0.281,0.435,0.72,-0.568
0.1295,1.179,1.0495,-0.6545,-0.46,1.1145,0.5725,0.989,1.489,1.1035,0.6255,0.233,0.3645,0.6865,-0.4825
0.1,1.1455,1.0455,-0.623,-0.473,1.0955,0.434,0.7965,1.2725,0.9105,0.5355,0.1945,0.3075,0.647,-0.4195
0.0735,1.148,1.075,-0.611,-0.5005,1.1115,0.2465,0.5525,1.002,0.7015,0.459,0.1675,0.2485,0.657,-0.342
0.0465,1.1695,1.1225,-0.608,-0.5375,1.146,0.066,0.3225,0.746,0.5195,0.404,0.1565,0.2025,0.6935,-0.255
0.026,1.218,1.1915,-0.622,-0.5825,1.205,-0.1095,0.1025,0.5185,0.373,0.3715,0.1585,0.167,0.7535,-0.1955
-0.001,1.2535,1.254,-0.626,-0.6275,1.2535,-0.295,-0.153,0.2625,0.209,0.3225,0.1495,0.1185,0.7995,-0.1425
-0.0315,1.24,1.271,-0.6045,-0.651,1.255,-0.4475,-0.363,0.022,0.0355,0.2545,0.1265,0.073,0.801,-0.073
-0.0485,1.231,1.279,-0.5915,-0.6635,1.255,-0.586,-0.5405,-0.1955,-0.1175,0.2,0.1105,0.0435,0.8015,-0.0015
-0.0485,1.208,1.256,-0.5795,-0.652,1.232,-0.7015,-0.6925,-0.377,-0.2445,0.1515,0.094,0.0265,0.7655,0.0585
-0.056,1.174,1.23,-0.559,-0.6425,1.202,-0.8155,-0.8675,-0.599,-0.4025,0.0865,0.066,0.0025,0.7265,0.1415
-0.066,1.1695,1.235,-0.552,-0.6505,1.2025,-0.9185,-1.0305,-0.787,-0.525,0.0465,0.0535,-0.018,0.7255,0.2135
-0.0735,1.172,1.2445,-0.5495,-0.659,1.2085,-0.976,-1.101,-0.8485,-0.5645,0.0265,0.048,-0.03,0.729,0.234
-0.099,1.1675,1.266,-0.534,-0.6825,1.217,-0.993,-1.1225,-0.8715,-0.583,0.0055,0.035,-0.0485,0.736,0.252
-0.1155,1.176,1.2915,-0.5305,-0.7035,1.234,-0.9765,-1.0995,-0.855,-0.5755,-0.001,0.0275,-0.062,0.7505,0.2575
-0.125,1.173,1.2975,-0.524,-0.711,1.2355,-0.9815,-1.085,-0.842,-0.573,-0.011,0.0195,-0.0675,0.7455,0.2595
-0.1295,1.1605,1.2895,-0.5155,-0.709,1.2255,-0.985,-1.0615,-0.82,-0.5625,-0.016,0.0165,-0.065,0.738,0.2735
-0.128,1.1375,1.265,-0.5045,-0.6965,1.2015,-0.975,-1.0255,-0.798,-0.56,-0.0275,0.008,-0.0635,0.713,0.2885
-0.1305,1.102,1.232,-0.4855,-0.681,1.167,-0.953,-0.985,-0.783,-0.5695,-0.0485,-0.007,-0.0645,0.6705,0.315
-0.1285,1.095,1.223,-0.4835,-0.6755,1.1595,-0.913,-0.936,-0.7635,-0.5795,-0.0725,-0.025,-0.0725,0.6535,0.334
-0.1275,1.074,1.201,-0.4735,-0.664,1.138,-0.8645,-0.885,-0.744,-0.5845,-0.096,-0.045,-0.084,0.626,0.3495
-0.132,1.0515,1.183,-0.4595,-0.6575,1.1175,-0.8195,-0.841,-0.7205,-0.5785,-0.108,-0.0585,-0.087,0.597,0.352
-0.1455,1.0335,1.1785,-0.444,-0.6615,1.1065,-0.7835,-0.811,-0.7055,-0.5785,-0.1255,-0.077,-0.095,0.5775,0.343
-0.147,1.021,1.1675,-0.4365,-0.657,1.0945,-0.7495,-0.784,-0.692,-0.5765,-0.141,-0.0935,-0.107,0.5565,0.337
-0.1485,1.023,1.171,-0.437,-0.6595,1.0975,-0.7185,-0.7635,-0.6815,-0.5755,-0.156,-0.1095,-0.116,0.5485,0.325
-0.152,1.012,1.164,-0.43,-0.6575,1.0885,-0.677,-0.7325,-0.6615,-0.567,-0.165,-0.122,-0.123,0.547,0.314
-0.15,1.0065,1.1565,-0.4285,-0.653,1.082,-0.6335,-0.6935,-0.633,-0.5495,-0.1665,-0.1275,-0.1275,0.5545,0.303
-0.1545,1.0005,1.155,-0.423,-0.654,1.078,-0.5905,-0.6535,-0.6035,-0.531,-0.1715,-0.1375,-0.132,0.556,0.2955
-0.1595,0.9945,1.1535,-0.4175,-0.656,1.074,-0.5515,-0.621,-0.578,-0.517,-0.1735,-0.144,-0.1335,0.559,0.289
-0.1615,0.9875,1.149,-0.413,-0.6545,1.068,-0.5015,-0.576,-0.543,-0.4945,-0.1755,-0.1535,-0.133,0.5495,0.2615
-0.163,0.9765,1.139,-0.407,-0.6505,1.0575,-0.437,-0.517,-0.499,-0.466,-0.173,-0.16,-0.134,0.5365,0.232
-0.1645,0.9745,1.1395,-0.405,-0.6515,1.057,-0.372,-0.4585,-0.4535,-0.436,-0.1675,-0.1595,-0.13,0.5335,0.208
-0.166,0.9775,1.144,-0.406,-0.6545,1.061,-0.32,-0.409,-0.4155,-0.411,-0.165,-0.1635,-0.127,0.5335,0.188
-0.1685,0.982,1.15,-0.4065,-0.6585,1.066,-0.276,-0.367,-0.383,-0.392,-0.165,-0.1705,-0.1315,0.536,0.168
-0.168,0.9825,1.1505,-0.407,-0.6585,1.0665,-0.2285,-0.322,-0.347,-0.368,-0.1635,-0.1785,-0.134,0.535,0.14
-0.1655,0.9775,1.1435,-0.406,-0.654,1.0605,-0.1885,-0.2845,-0.3175,-0.348,-0.159,-0.1815,-0.137,0.5395,0.1275
-0.166,0.971,1.137,-0.4025,-0.651,1.054,-0.157,-0.2535,-0.292,-0.33,-0.1565,-0.1845,-0.141,0.5435,0.1295
-0.1675,0.963,1.13,-0.3975,-0.648,1.0465,-0.132,-0.231,-0.274,-0.3165,-0.156,-0.188,-0.145,0.5415,0.1255
-0.1735,0.956,1.1295,-0.3915,-0.651,1.0425,-0.108,-0.2115,-0.257,-0.3075,-0.1605,-0.196,-0.157,0.5315,0.111
-0.189,0.948,1.137,-0.3795,-0.6625,1.043,-0.087,-0.1905,-0.242,-0.3005,-0.167,-0.206,-0.172,0.533,0.0975
-0.1925,0.9415,1.1345,-0.3745,-0.663,1.038,-0.07,-0.175,-0.2325,-0.297,-0.172,-0.2135,-0.1795,0.523,0.086
-0.1925,0.932,1.125,-0.3695,-0.658,1.0285,-0.0555,-0.162,-0.2235,-0.2925,-0.1765,-0.221,-0.188,0.5095,0.0755
-0.198,0.9215,1.119,-0.3615,-0.658,1.02,-0.0435,-0.1515,-0.2135,-0.2885,-0.179,-0.2255,-0.1935,0.5055,0.069
-0.203,0.925,1.128,-0.361,-0.6645,1.0265,-0.0375,-0.145,-0.207,-0.285,-0.183,-0.2305,-0.196,0.506,0.0625
-0.2055,0.9255,1.1305,-0.36,-0.6675,1.028,-0.0325,-0.1395,-0.2045,-0.2825,-0.185,-0.234,-0.1975,0.5025,0.0555
-0.2025,0.922,1.1245,-0.3595,-0.663,1.0235,-0.0245,-0.132,-0.197,-0.278,-0.1825,-0.234,-0.198,0.497,0.054
-0.2025,0.933,1.1355,-0.3655,-0.6685,1.0345,-0.021,-0.129,-0.1935,-0.2745,-0.1815,-0.232,-0.198,0.509,0.043
-0.2005,0.9325,1.133,-0.366,-0.6665,1.0325,-0.0195,-0.126,-0.193,-0.275,-0.183,-0.2325,-0.1975,0.5015,0.0365
-0.2025,0.925,1.128,-0.361,-0.665,1.0265,-0.019,-0.126,-0.194,-0.278,-0.1855,-0.2375,-0.1995,0.49,0.0335
-0.2125,0.9165,1.129,-0.352,-0.6705,1.0225,-0.0185,-0.1275,-0.199,-0.2835,-0.1915,-0.243,-0.2025,0.4905,0.034
-0.2185,0.908,1.1265,-0.3445,-0.672,1.017,-0.0165,-0.124,-0.1995,-0.2855,-0.1945,-0.2465,-0.2035,0.4875,0.0415
-0.216,0.9175,1.1335,-0.3505,-0.6745,1.0255,-0.0165,-0.123,-0.1985,-0.2835,-0.196,-0.246,-0.2045,0.4925,0.0375
-0.212,0.9225,1.134,-0.355,-0.6725,1.028,-0.015,-0.121,-0.1975,-0.2825,-0.1985,-0.246,-0.206,0.5045,0.0465
-0.209,0.923,1.1315,-0.357,-0.67,1.027,-0.011,-0.1165,-0.196,-0.282,-0.197,-0.247,-0.2065,0.508,0.0515
-0.208,0.9215,1.1295,-0.357,-0.6685,1.0255,-0.0065,-0.1125,-0.193,-0.28,-0.197,-0.2485,-0.2085,0.5105,0.049
-0.2095,0.921,1.13,-0.3555,-0.6695,1.0255,-0.003,-0.1085,-0.188,-0.2765,-0.198,-0.2485,-0.2105,0.512,0.048
-0.2105,0.908,1.1185,-0.3485,-0.664,1.0135,0.0015,-0.103,-0.185,-0.2755,-0.2,-0.2515,-0.212,0.4905,0.042
-0.214,0.902,1.1165,-0.344,-0.665,1.0095,0.003,-0.1,-0.1835,-0.2765,-0.2025,-0.256,-0.2135,0.483,0.0335
-0.215,0.905,1.1205,-0.345,-0.6675,1.013,0.0065,-0.0995,-0.182,-0.2755,-0.202,-0.2575,-0.2135,0.4915,0.0385
-0.2185,0.8955,1.1145,-0.3385,-0.666,1.005,0.0135,-0.093,-0.177,-0.271,-0.2,-0.2565,-0.2135,0.4735,0.0365
-0.2215,0.888,1.1095,-0.333,-0.665,0.999,0.019,-0.0855,-0.17,-0.266,-0.1975,-0.2525,-0.21,0.4455,0.022
-0.2165,0.8815,1.098,-0.3325,-0.6565,0.9895,0.0215,-0.081,-0.1675,-0.265,-0.199,-0.254,-0.2105,0.441,0.034
-0.214,0.89,1.1045,-0.338,-0.659,0.997,0.0235,-0.0795,-0.1665,-0.2635,-0.1995,-0.255,-0.2125,0.46,0.039
-0.209,0.897,1.1055,-0.344,-0.657,1.001,0.024,-0.0775,-0.165,-0.2645,-0.201,-0.257,-0.214,0.465,0.0335
-0.207,0.8955,1.102,-0.344,-0.654,0.9985,0.0235,-0.0765,-0.166,-0.267,-0.2035,-0.26,-0.2125,0.4595,0.0335
-0.211,0.8895,1.1,-0.3395,-0.655,0.995,0.0245,-0.0765,-0.166,-0.268,-0.2055,-0.259,-0.211,0.4565,0.035
-0.221,0.875,1.096,-0.327,-0.658,0.9855,0.0245,-0.075,-0.1645,-0.2695,-0.2085,-0.264,-0.211,0.4495,0.032
-0.2255,0.8775,1.103,-0.326,-0.664,0.99,0.0295,-0.071,-0.16,-0.266,-0.2045,-0.262,-0.21,0.4435,0.017
-0.218,0.886,1.104,-0.334,-0.6605,0.995,0.031,-0.0675,-0.1585,-0.2655,-0.2055,-0.263,-0.212,0.4445,0.012
-0.217,0.891,1.108,-0.3365,-0.662,0.999,0.031,-0.067,-0.157,-0.268,-0.206,-0.2645,-0.2125,0.4565,0.0145
-0.22,0.896,1.116,-0.338,-0.6675,1.006,0.0335,-0.066,-0.1535,-0.2655,-0.204,-0.263,-0.2145,0.461,0.0115
-0.219,0.8915,1.1105,-0.336,-0.664,1.001,0.0325,-0.067,-0.1525,-0.265,-0.2055,-0.2645,-0.2145,0.4555,0.013
-0.2195,0.8815,1.1005,-0.331,-0.6595,0.991,0.038,-0.062,-0.149,-0.263,-0.204,-0.263,-0.212,0.4525,0.016
-0.221,0.8825,1.1035,-0.331,-0.662,0.993,0.0395,-0.061,-0.1475,-0.2605,-0.2035,-0.2635,-0.2135,0.4575,0.021
-0.225,0.8835,1.1085,-0.3295,-0.6665,0.996,0.042,-0.059,-0.1455,-0.2605,-0.201,-0.2605,-0.214,0.4685,0.0225
-0.223,0.8895,1.1125,-0.333,-0.6675,1.001,0.0455,-0.054,-0.14,-0.256,-0.1975,-0.2575,-0.215,0.4805,0.0295
-0.219,0.898,1.117,-0.3395,-0.6675,1.0075,0.049,-0.052,-0.138,-0.2535,-0.1955,-0.256,-0.2145,0.488,0.036
-0.2185,0.8945,1.113,-0.338,-0.6655,1.004,0.052,-0.047,-0.1375,-0.254,-0.195,-0.2545,-0.213,0.4775,0.0295
-0.218,0.888,1.1065,-0.335,-0.6615,0.997,0.052,-0.043,-0.134,-0.252,-0.1965,-0.2565,-0.2125,0.4615,0.028
-0.2165,0.8895,1.1055,-0.3365,-0.6605,0.9975,0.056,-0.04,-0.1315,-0.2505,-0.1955,-0.2565,-0.2125,0.4575,0.0145
-0.211,0.889,1.1,-0.339,-0.655,0.9945,0.059,-0.038,-0.1305,-0.249,-0.196,-0.255,-0.2115,0.4635,0.019
-0.207,0.888,1.095,-0.3405,-0.6505,0.9915,0.0605,-0.036,-0.1285,-0.247,-0.194,-0.2545,-0.211,0.47,0.0285
-0.203,0.893,1.0955,-0.345,-0.6485,0.994,0.0635,-0.0325,-0.1245,-0.2445,-0.1905,-0.254,-0.212,0.4735,0.02
-0.2075,0.888,1.095,-0.34,-0.651,0.9915,0.069,-0.03,-0.1225,-0.242,-0.188,-0.253,-0.2135,0.476,0.025
-0.207,0.888,1.095,-0.3405,-0.6505,0.9915,0.069,-0.0285,-0.1235,-0.242,-0.19,-0.253,-0.213,0.473,0.028
-0.201,0.8955,1.096,-0.347,-0.648,0.9955,0.0675,-0.03,-0.1245,-0.245,-0.1925,-0.256,-0.212,0.47,0.018
-0.202,0.894,1.0955,-0.346,-0.6485,0.995,0.066,-0.0295,-0.1255,-0.246,-0.194,-0.259,-0.2115,0.4655,0.0155
-0.2075,0.888,1.095,-0.3405,-0.651,0.9915,0.068,-0.0275,-0.126,-0.245,-0.195,-0.259,-0.2115,0.4695,0.02
-0.2135,0.885,1.0985,-0.3355,-0.6555,0.992,0.068,-0.027,-0.125,-0.2455,-0.195,-0.2605,-0.2105,0.4765,0.015
-0.2055,0.8865,1.092,-0.3405,-0.648,0.989,0.067,-0.026,-0.124,-0.247,-0.1995,-0.263,-0.209,0.4555,0.009
-0.2035,0.883,1.0865,-0.34,-0.6445,0.985,0.0705,-0.023,-0.1225,-0.246,-0.199,-0.263,-0.21,0.4495,0.007
-0.2095,0.877,1.0865,-0.3335,-0.6475,0.982,0.072,-0.019,-0.12,-0.245,-0.197,-0.26,-0.208,0.454,0.014
-0.2075,0.879,1.0865,-0.3355,-0.6465,0.983,0.0735,-0.0175,-0.12,-0.244,-0.1995,-0.26,-0.208,0.4545,0.0155
-0.2145,0.8785,1.093,-0.332,-0.6535,0.9855,0.075,-0.017,-0.1205,-0.2425,-0.1995,-0.2615,-0.211,0.454,0.0025
-0.22,0.8905,1.1105,-0.335,-0.665,1.0005,0.0715,-0.0215,-0.1245,-0.246,-0.203,-0.2645,-0.2115,0.462,-0.001
-0.226,0.892,1.118,-0.333,-0.6715,1.005,0.0705,-0.0225,-0.1255,-0.247,-0.2035,-0.2655,-0.211,0.4775,0.0145
-0.225,0.875,1.1005,-0.325,-0.662,0.9875,0.0785,-0.013,-0.1175,-0.242,-0.2005,-0.2615,-0.2115,0.4655,0.019
-0.2145,0.8655,1.08,-0.3255,-0.647,0.973,0.0875,-0.006,-0.11,-0.2355,-0.1965,-0.2575,-0.2115,0.4455,0.009
-0.212,0.861,1.073,-0.3245,-0.642,0.967,0.092,-0.0005,-0.104,-0.229,-0.1915,-0.2515,-0.2095,0.4435,0.008
-0.212,0.8755,1.0875,-0.3315,-0.6495,0.9815,0.092,-0.001,-0.1045,-0.2335,-0.197,-0.2575,-0.213,0.458,0.014
-0.212,0.8835,1.095,-0.3355,-0.653,0.9895,0.093,-0.0005,-0.103,-0.2325,-0.1965,-0.2595,-0.2135,0.464,0.0155
-0.217,0.8785,1.0955,-0.331,-0.656,0.9875,0.093,0.0005,-0.1015,-0.2315,-0.1965,-0.259,-0.2135,0.462,0.008
-0.2235,0.883,1.106,-0.33,-0.6645,0.9945,0.092,0.0,-0.1045,-0.234,-0.1995,-0.2635,-0.2165,0.458,-0.002
-0.2175,0.8835,1.101,-0.333,-0.659,0.992,0.094,0.0045,-0.101,-0.2305,-0.197,-0.2615,-0.214,0.456,0.0075
-0.2155,0.8705,1.0865,-0.3275,-0.6505,0.9785,0.099,0.008,-0.097,-0.2295,-0.195,-0.259,-0.2125,0.463,0.0295
-0.215,0.8765,1.092,-0.3305,-0.653,0.9845,0.104,0.011,-0.0935,-0.2255,-0.1925,-0.2575,-0.2135,0.472,0.027
-0.209,0.891,1.0995,-0.341,-0.654,0.995,0.106,0.013,-0.0925,-0.224,-0.1915,-0.256,-0.2115,0.482,0.022
-0.2055,0.888,1.093,-0.3415,-0.6485,0.9905,0.106,0.013,-0.0925,-0.224,-0.1915,-0.2555,-0.2095,0.474,0.015
-0.207,0.8865,1.093,-0.3395,-0.6495,0.9895,0.1075,0.0145,-0.091,-0.2265,-0.192,-0.2595,-0.2105,0.4655,0.003
-0.208,0.885,1.0925,-0.3385,-0.65,0.989,0.1075,0.0155,-0.0905,-0.2275,-0.193,-0.26,-0.21,0.4765,0.0045
-0.2155,0.8745,1.09,-0.3295,-0.6525,0.982,0.105,0.0135,-0.0915,-0.2285,-0.1965,-0.263,-0.2105,0.476,0.003
-0.216,0.8725,1.0885,-0.3285,-0.6515,0.9805,0.1065,0.014,-0.092,-0.2305,-0.199,-0.2645,-0.2095,0.467,0.002
-0.204,0.883,1.087,-0.3395,-0.6445,0.985,0.112,0.0195,-0.0865,-0.224,-0.195,-0.261,-0.2085,0.4655,0.0065
-0.2015,0.8955,1.0965,-0.347,-0.6485,0.996,0.1145,0.023,-0.0815,-0.221,-0.192,-0.26,-0.21,0.4715,0.0085
-0.2055,0.895,1.1,-0.3445,-0.6525,0.9975,0.117,0.024,-0.08,-0.2215,-0.1925,-0.26,-0.2095,0.471,0.002
-0.213,0.879,1.092,-0.333,-0.652,0.9855,0.1195,0.026,-0.081,-0.221,-0.1935,-0.263,-0.21,0.453,-0.0035
-0.2105,0.8805,1.091,-0.335,-0.65,0.986,0.1235,0.0325,-0.0755,-0.217,-0.192,-0.2615,-0.2105,0.4515,-0.002
-0.2105,0.8805,1.091,-0.335,-0.6505,0.986,0.1275,0.0355,-0.072,-0.214,-0.1885,-0.258,-0.209,0.463,0.002
-0.219,0.8705,1.0895,-0.3255,-0.6535,0.98,0.1245,0.0325,-0.0745,-0.2175,-0.192,-0.2605,-0.208,0.464,0.001
-0.218,0.869,1.087,-0.325,-0.652,0.978,0.1265,0.0365,-0.0705,-0.2145,-0.1925,-0.262,-0.2085,0.4595,-0.01
-0.212,0.8695,1.0815,-0.3285,-0.6465,0.9755,0.1295,0.0385,-0.07,-0.215,-0.193,-0.262,-0.2065,0.4505,-0.0135
-0.21,0.865,1.0755,-0.3275,-0.642,0.97,0.1305,0.0405,-0.0695,-0.214,-0.194,-0.261,-0.2035,0.4525,-0.0085
-0.2095,0.8655,1.075,-0.328,-0.642,0.97,0.1355,0.0455,-0.0645,-0.209,-0.1915,-0.26,-0.203,0.453,-0.0055
-0.2055,0.8755,1.081,-0.335,-0.6425,0.978,0.141,0.05,-0.0615,-0.2075,-0.1895,-0.2585,-0.203,0.455,-0.0005
-0.206,0.876,1.082,-0.335,-0.6435,0.979,0.1455,0.0545,-0.059,-0.204,-0.187,-0.258,-0.205,0.4655,0.0065
-0.2075,0.875,1.0825,-0.3335,-0.6445,0.9785,0.1485,0.0605,-0.0545,-0.2025,-0.185,-0.2555,-0.2025,0.4615,0.0015
-0.201,0.878,1.079,-0.3385,-0.6395,0.9785,0.152,0.0645,-0.0495,-0.1995,-0.1825,-0.253,-0.1995,0.4595,-0.0005
-0.204,0.8745,1.079,-0.3355,-0.641,0.9765,0.151,0.0635,-0.0515,-0.201,-0.1855,-0.258,-0.2005,0.4535,-0.0095
-0.2125,0.8645,1.077,-0.326,-0.6445,0.971,0.1535,0.0665,-0.051,-0.2005,-0.1865,-0.2595,-0.1995,0.444,-0.0135
-0.2145,0.8595,1.074,-0.3225,-0.6435,0.9665,0.156,0.066,-0.049,-0.2015,-0.188,-0.2605,-0.198,0.4455,-0.013
-0.2185,0.8645,1.083,-0.323,-0.65,0.9735,0.1545,0.0655,-0.048,-0.203,-0.19,-0.262,-0.1985,0.452,-0.0165
-0.212,0.8665,1.079,-0.3275,-0.645,0.9725,0.1585,0.0725,-0.0455,-0.2,-0.1865,-0.259,-0.198,0.4525,-0.012
-0.2075,0.869,1.0765,-0.331,-0.6415,0.973,0.162,0.075,-0.0435,-0.199,-0.1845,-0.258,-0.1955,0.45,-0.019
-0.206,0.877,1.083,-0.3355,-0.644,0.98,0.166,0.0805,-0.0375,-0.1925,-0.181,-0.2525,-0.1935,0.4545,-0.0095
-0.2055,0.882,1.088,-0.3385,-0.646,0.985,0.171,0.084,-0.034,-0.189,-0.179,-0.25,-0.195,0.4485,-0.014
-0.2055,0.8855,1.091,-0.34,-0.648,0.988,0.173,0.0855,-0.033,-0.1885,-0.1785,-0.252,-0.198,0.4495,-0.0255
-0.2025,0.8765,1.079,-0.337,-0.64,0.9775,0.1785,0.0935,-0.029,-0.184,-0.1785,-0.2505,-0.197,0.448,-0.016
-0.203,0.8685,1.071,-0.333,-0.6365,0.97,0.1835,0.098,-0.0245,-0.181,-0.179,-0.251,-0.1975,0.443,-0.015
-0.198,0.872,1.07,-0.337,-0.634,0.9715,0.1855,0.098,-0.023,-0.182,-0.1775,-0.2515,-0.198,0.443,-0.0225
-0.199,0.87,1.069,-0.3355,-0.6335,0.9695,0.1865,0.0995,-0.021,-0.182,-0.178,-0.252,-0.1965,0.439,-0.028
-0.203,0.872,1.075,-0.3345,-0.6385,0.973,0.1905,0.1025,-0.0185,-0.1795,-0.1775,-0.2515,-0.197,0.4425,-0.028
-0.202,0.8735,1.0755,-0.3355,-0.6385,0.9745,0.1935,0.108,-0.0135,-0.176,-0.176,-0.2505,-0.197,0.448,-0.023
-0.2005,0.871,1.072,-0.3355,-0.636,0.9715,0.1945,0.113,-0.0085,-0.1735,-0.1745,-0.249,-0.1965,0.453,-0.0175
-0.201,0.8745,1.0755,-0.3365,-0.638,0.975,0.1995,0.117,-0.005,-0.1705,-0.172,-0.2475,-0.196,0.4555,-0.0195
-0.204,0.8785,1.0825,-0.337,-0.643,0.9805,0.206,0.121,-0.0025,-0.1695,-0.171,-0.248,-0.1965,0.4585,-0.0195
-0.2005,0.8835,1.084,-0.3415,-0.6415,0.9835,0.2085,0.124,-0.0025,-0.168,-0.17,-0.2495,-0.1945,0.4545,-0.029
-0.1945,0.881,1.0755,-0.343,-0.6345,0.9785,0.2105,0.1265,0.0015,-0.166,-0.169,-0.2475,-0.192,0.442,-0.0305
-0.1965,0.875,1.0715,-0.3395,-0.6335,0.9735,0.2145,0.129,0.006,-0.1645,-0.1685,-0.2485,-0.191,0.4355,-0.0355
-0.199,0.8715,1.0705,-0.3365,-0.6345,0.971,0.217,0.131,0.0085,-0.162,-0.1665,-0.249,-0.1915,0.438,-0.0425
-0.201,0.876,1.077,-0.3375,-0.6385,0.9765,0.2195,0.1345,0.0105,-0.161,-0.167,-0.248,-0.1905,0.45,-0.0315
-0.2085,0.87,1.0785,-0.3305,-0.6435,0.9745,0.222,0.139,0.014,-0.158,-0.164,-0.2485,-0.19,0.451,-0.029
-0.2045,0.8635,1.068,-0.3295,-0.6355,0.966,0.2275,0.1455,0.021,-0.153,-0.162,-0.246,-0.1895,0.453,-0.026
-0.2005,0.8745,1.0745,-0.337,-0.637,0.9745,0.2275,0.1475,0.02,-0.157,-0.167,-0.251,-0.1905,0.465,-0.0265
-0.2035,0.8755,1.079,-0.336,-0.6405,0.977,0.229,0.1485,0.02,-0.157,-0.167,-0.2535,-0.1885,0.4635,-0.0315
-0.2025,0.878,1.0805,-0.338,-0.641,0.9795,0.236,0.156,0.0265,-0.151,-0.1615,-0.249,-0.187,0.4595,-0.039
-0.196,0.8835,1.0795,-0.3435,-0.6375,0.9815,0.24,0.1605,0.032,-0.148,-0.16,-0.249,-0.187,0.457,-0.044
-0.1905,0.877,1.0675,-0.343,-0.6285,0.972,0.2465,0.168,0.0355,-0.1455,-0.16,-0.249,-0.1855,0.458,-0.0395
-0.193,0.866,1.059,-0.3365,-0.6255,0.9625,0.2515,0.1715,0.0375,-0.1445,-0.159,-0.249,-0.185,0.453,-0.0405
-0.191,0.872,1.063,-0.3405,-0.6265,0.9675,0.25,0.1715,0.039,-0.1465,-0.162,-0.252,-0.1845,0.447,-0.05
-0.1915,0.87,1.062,-0.3395,-0.626,0.966,0.254,0.177,0.041,-0.146,-0.163,-0.253,-0.186,0.4355,-0.059
-0.1945,0.861,1.0555,-0.333,-0.6245,0.958,0.2595,0.1815,0.046,-0.1415,-0.1605,-0.2505,-0.1845,0.4235,-0.0575
-0.1955,0.87,1.0655,-0.3375,-0.63,0.968,0.262,0.1855,0.0495,-0.1375,-0.1585,-0.2485,-0.1825,0.4485,-0.0455
-0.196,0.8695,1.0655,-0.337,-0.63,0.9675,0.2675,0.191,0.0565,-0.1325,-0.154,-0.245,-0.181,0.4575,-0.043
-0.195,0.8705,1.0655,-0.3375,-0.63,0.968,0.274,0.197,0.063,-0.127,-0.1525,-0.2435,-0.181,0.4455,-0.0555
-0.1925,0.874,1.067,-0.3405,-0.6295,0.9705,0.2785,0.201,0.065,-0.126,-0.1515,-0.2425,-0.1805,0.4485,-0.054
-0.1875,0.8655,1.0535,-0.339,-0.62,0.9595,0.284,0.2055,0.0695,-0.1265,-0.1515,-0.2445,-0.1795,0.437,-0.0505
-0.183,0.8625,1.0455,-0.34,-0.614,0.954,0.289,0.211,0.074,-0.122,-0.1505,-0.242,-0.1775,0.4375,-0.0485
-0.1825,0.8675,1.0495,-0.3425,-0.6155,0.9585,0.294,0.2165,0.0795,-0.118,-0.1455,-0.2385,-0.174,0.4555,-0.0385
-0.1855,0.869,1.0545,-0.3415,-0.6195,0.9615,0.298,0.2215,0.0835,-0.1175,-0.147,-0.2395,-0.176,0.4525,-0.04
-0.186,0.87,1.0565,-0.342,-0.621,0.9635,0.3015,0.224,0.0865,-0.1155,-0.147,-0.239,-0.1745,0.453,-0.055
-0.1855,0.87,1.056,-0.342,-0.6205,0.963,0.306,0.227,0.0905,-0.1125,-0.146,-0.24,-0.172,0.458,-0.058
-0.1845,0.8715,1.0565,-0.3435,-0.62,0.964,0.3085,0.2325,0.0945,-0.1115,-0.1455,-0.238,-0.171,0.4565,-0.0515
-0.185,0.8655,1.0505,-0.3405,-0.6175,0.958,0.3135,0.2385,0.1,-0.1085,-0.1415,-0.237,-0.1685,0.447,-0.0625
-0.186,0.864,1.05,-0.339,-0.6175,0.957,0.3195,0.2475,0.105,-0.1035,-0.14,-0.2375,-0.1685,0.4445,-0.0645
-0.1835,0.8785,1.062,-0.3475,-0.622,0.9705,0.326,0.2555,0.1135,-0.0985,-0.1385,-0.2345,-0.1685,0.4585,-0.062
-0.181,0.881,1.0615,-0.35,-0.6205,0.971,0.335,0.2615,0.1195,-0.095,-0.1345,-0.2325,-0.1665,0.4535,-0.0695
-0.184,0.868,1.052,-0.342,-0.617,0.96,0.339,0.266,0.1215,-0.094,-0.1355,-0.235,-0.1685,0.4365,-0.073
-0.182,0.8605,1.0425,-0.3395,-0.612,0.9515,0.347,0.2735,0.13,-0.086,-0.1315,-0.232,-0.1675,0.436,-0.0725
-0.171,0.863,1.034,-0.346,-0.602,0.9485,0.357,0.2835,0.139,-0.078,-0.1235,-0.225,-0.164,0.4425,-0.069
-0.161,0.873,1.0335,-0.356,-0.5965,0.9535,0.361,0.289,0.1415,-0.076,-0.1235,-0.2245,-0.16,0.4465,-0.07
-0.1595,0.883,1.0425,-0.362,-0.6005,0.9625,0.365,0.293,0.146,-0.0715,-0.1235,-0.225,-0.1595,0.454,-0.076
-0.168,0.871,1.039,-0.3515,-0.603,0.955,0.3695,0.297,0.1505,-0.0705,-0.1245,-0.2265,-0.1605,0.4535,-0.0725
-0.1695,0.863,1.0325,-0.347,-0.6005,0.948,0.3755,0.304,0.152,-0.07,-0.126,-0.2275,-0.1585,0.448,-0.0715
-0.17,0.8625,1.0325,-0.346,-0.601,0.9475,0.38,0.3105,0.1565,-0.0655,-0.1225,-0.2265,-0.1575,0.4425,-0.085
-0.172,0.855,1.027,-0.3415,-0.599,0.941,0.388,0.3175,0.1645,-0.0615,-0.1185,-0.2225,-0.1555,0.4405,-0.081
-0.1655,0.8595,1.025,-0.347,-0.5945,0.9425,0.396,0.326,0.171,-0.057,-0.117,-0.2215,-0.1545,0.4375,-0.081
-0.166,0.8705,1.0365,-0.3525,-0.6005,0.9535,0.4005,0.3315,0.176,-0.052,-0.115,-0.223,-0.153,0.4425,-0.089
-0.17,0.87,1.04,-0.35,-0.6045,0.955,0.405,0.336,0.1785,-0.052,-0.116,-0.225,-0.1505,0.451,-0.09
-0.1675,0.8525,1.0195,-0.3425,-0.593,0.936,0.409,0.3415,0.1825,-0.0515,-0.118,-0.227,-0.1465,0.43,-0.098
-0.1705,0.85,1.0205,-0.34,-0.595,0.9355,0.4185,0.3505,0.19,-0.0455,-0.113,-0.224,-0.1455,0.421,-0.1035
-0.1705,0.866,1.037,-0.3475,-0.603,0.9515,0.426,0.359,0.195,-0.042,-0.1105,-0.222,-0.147,0.4355,-0.105
-0.1645,0.874,1.0385,-0.3545,-0.601,0.956,0.432,0.3675,0.2055,-0.037,-0.107,-0.219,-0.147,0.4415,-0.1055
-0.1595,0.876,1.0355,-0.3585,-0.597,0.9555,0.4365,0.3735,0.212,-0.033,-0.1055,-0.2195,-0.1455,0.439,-0.1095
-0.1515,0.874,1.026,-0.361,-0.5885,0.95,0.444,0.382,0.216,-0.0285,-0.104,-0.2195,-0.1395,0.44,-0.1015
-0.1515,0.8715,1.023,-0.36,-0.587,0.9475,0.455,0.3915,0.224,-0.0245,-0.1005,-0.2165,-0.1375,0.437,-0.0965
-0.153,0.873,1.026,-0.36,-0.589,0.95,0.4585,0.3975,0.2285,-0.0235,-0.1015,-0.2195,-0.139,0.428,-0.107
-0.1595,0.8655,1.025,-0.353,-0.592,0.945,0.4645,0.403,0.2315,-0.022,-0.102,-0.222,-0.139,0.4315,-0.104
-0.1605,0.8615,1.022,-0.3505,-0.5905,0.942,0.4735,0.41,0.238,-0.017,-0.1005,-0.2215,-0.1375,0.434,-0.101
-0.156,0.8605,1.017,-0.352,-0.586,0.9385,0.482,0.421,0.249,-0.01,-0.0985,-0.219,-0.136,0.4265,-0.1045
-0.1525,0.861,1.0135,-0.354,-0.5825,0.9375,0.492,0.432,0.257,-0.005,-0.092,-0.2145,-0.134,0.4265,-0.1085
-0.145,0.8695,1.0145,-0.362,-0.579,0.942,0.4995,0.44,0.2635,0.0005,-0.0905,-0.2135,-0.131,0.4245,-0.1195
-0.1455,0.8695,1.0155,-0.362,-0.58,0.9425,0.507,0.449,0.2705,0.0045,-0.0905,-0.214,-0.13,0.4345,-0.1135
-0.148,0.867,1.015,-0.3595,-0.581,0.941,0.5185,0.46,0.2795,0.0135,-0.085,-0.2105,-0.129,0.4415,-0.1095
-0.15,0.8595,1.0095,-0.3545,-0.5795,0.9345,0.527,0.4695,0.286,0.0185,-0.0845,-0.209,-0.1265,0.4315,-0.116
-0.15,0.8645,1.014,-0.357,-0.5815,0.939,0.534,0.4785,0.292,0.0215,-0.083,-0.2115,-0.126,0.437,-0.119
-0.1485,0.87,1.019,-0.361,-0.583,0.9445,0.542,0.4885,0.3005,0.0265,-0.079,-0.21,-0.126,0.447,-0.1185
-0.1425,0.867,1.0095,-0.3625,-0.575,0.9385,0.5515,0.4995,0.3095,0.0325,-0.0745,-0.205,-0.122,0.446,-0.1175
-0.136,0.8765,1.0125,-0.37,-0.574,0.9445,0.559,0.5095,0.317,0.039,-0.0725,-0.2035,-0.121,0.456,-0.1185
-0.1325,0.884,1.0165,-0.3755,-0.574,0.95,0.567,0.518,0.3225,0.0415,-0.0695,-0.202,-0.1195,0.4615,-0.1205
-0.1325,0.877,1.0095,-0.372,-0.5705,0.9435,0.5745,0.527,0.3285,0.0445,-0.069,-0.2035,-0.116,0.446,-0.131
-0.136,0.876,1.012,-0.37,-0.5735,0.944,0.5795,0.535,0.3345,0.049,-0.0695,-0.2025,-0.113,0.457,-0.1245
-0.141,0.8715,1.0125,-0.3655,-0.576,0.942,0.5845,0.5425,0.3395,0.0515,-0.068,-0.2035,-0.109,0.459,-0.126
-0.1465,0.8555,1.002,-0.3545,-0.5735,0.9285,0.591,0.5515,0.3445,0.055,-0.0675,-0.2065,-0.107,0.4395,-0.1395
-0.137,0.863,1.0,-0.3635,-0.568,0.9315,0.604,0.5655,0.356,0.064,-0.062,-0.2015,-0.1055,0.437,-0.149
-0.136,0.8705,1.0065,-0.3675,-0.5705,0.9385,0.6125,0.5745,0.3645,0.0685,-0.0615,-0.2035,-0.1055,0.4315,-0.165
-0.1415,0.8605,1.0015,-0.3595,-0.571,0.931,0.623,0.5845,0.373,0.074,-0.0575,-0.1995,-0.103,0.428,-0.17
-0.1375,0.85,0.987,-0.3565,-0.562,0.9185,0.6365,0.602,0.387,0.0855,-0.0485,-0.1935,-0.1005,0.425,-0.166
-0.13,0.8375,0.9675,-0.354,-0.548,0.9025,0.646,0.6145,0.3955,0.092,-0.0465,-0.1935,-0.0975,0.404,-0.1675
-0.1235,0.8445,0.968,-0.3605,-0.545,0.906,0.654,0.623,0.403,0.0975,-0.0435,-0.191,-0.0915,0.401,-0.1735
-0.1245,0.855,0.9795,-0.365,-0.5515,0.917,0.662,0.6335,0.411,0.101,-0.0415,-0.1915,-0.0905,0.4125,-0.168
-0.1235,0.8645,0.988,-0.3705,-0.555,0.9265,0.667,0.64,0.416,0.103,-0.0425,-0.192,-0.0885,0.425,-0.1615
-0.121,0.865,0.9855,-0.372,-0.553,0.9255,0.675,0.651,0.4245,0.108,-0.039,-0.192,-0.086,0.4335,-0.163
-0.117,0.8505,0.9675,-0.3665,-0.5415,0.909,0.69,0.6665,0.436,0.1145,-0.0335,-0.188,-0.0835,0.4215,-0.159
-0.1125,0.8465,0.959,-0.367,-0.5355,0.9025,0.703,0.6785,0.4485,0.123,-0.0305,-0.1845,-0.0805,0.4175,-0.1595
-0.114,0.8425,0.9565,-0.3645,-0.5345,0.8995,0.7145,0.6935,0.459,0.132,-0.026,-0.183,-0.08,0.42,-0.157
-0.105,0.853,0.9575,-0.374,-0.531,0.9055,0.725,0.708,0.4715,0.1415,-0.0195,-0.1745,-0.076,0.429,-0.155
-0.0985,0.866,0.964,-0.3835,-0.531,0.915,0.7355,0.719,0.482,0.1485,-0.014,-0.1715,-0.0735,0.436,-0.165
-0.0985,0.866,0.9645,-0.3835,-0.531,0.915,0.7425,0.7285,0.49,0.1525,-0.0135,-0.1725,-0.0705,0.4345,-0.175
-0.103,0.8595,0.962,-0.378,-0.532,0.9105,0.7425,0.7335,0.4935,0.152,-0.016,-0.1775,-0.068,0.436,-0.1815
-0.1095,0.8525,0.962,-0.3715,-0.535,0.907,0.7495,0.7415,0.4975,0.154,-0.017,-0.179,-0.066,0.4375,-0.1815
-0.099,0.855,0.9535,-0.378,-0.5255,0.904,0.765,0.758,0.514,0.166,-0.0095,-0.1705,-0.061,0.438,-0.181
-0.0975,0.8545,0.9515,-0.3785,-0.524,0.903,0.775,0.77,0.5235,0.173,-0.005,-0.17,-0.06,0.4385,-0.187
-0.1025,0.8515,0.954,-0.3745,-0.5275,0.9025,0.7825,0.7775,0.5305,0.1745,-0.0045,-0.1725,-0.059,0.429,-0.194
-0.1,0.856,0.956,-0.378,-0.5275,0.906,0.791,0.7875,0.541,0.1795,-0.002,-0.1705,-0.0565,0.428,-0.2
-0.1,0.8625,0.962,-0.381,-0.5305,0.9125,0.7985,0.7965,0.5485,0.186,0.001,-0.171,-0.056,0.429,-0.2085
-0.092,0.8585,0.9505,-0.383,-0.521,0.9045,0.807,0.8085,0.5595,0.1915,0.0015,-0.1715,-0.0535,0.425,-0.212
-0.09,0.8465,0.9365,-0.3785,-0.513,0.8915,0.816,0.8215,0.5695,0.198,0.0055,-0.169,-0.049,0.4175,-0.2125
-0.0855,0.8445,0.93,-0.3795,-0.5075,0.887,0.8265,0.834,0.58,0.205,0.007,-0.1675,-0.0465,0.406,-0.2175
-0.0845,0.8425,0.927,-0.379,-0.505,0.885,0.835,0.8445,0.59,0.2095,0.008,-0.1675,-0.0445,0.411,-0.216
-0.096,0.8345,0.9305,-0.3695,-0.513,0.8825,0.8435,0.8535,0.5975,0.215,0.011,-0.1665,-0.0415,0.419,-0.212
-0.1015,0.8305,0.932,-0.3645,-0.5165,0.881,0.85,0.863,0.6065,0.221,0.012,-0.169,-0.04,0.411,-0.221
-0.0945,0.8255,0.92,-0.3655,-0.507,0.8725,0.859,0.874,0.619,0.227,0.0155,-0.166,-0.0375,0.3855,-0.2325
-0.078,0.839,0.917,-0.3805,-0.497,0.878,0.872,0.89,0.6325,0.2365,0.022,-0.16,-0.036,0.3875,-0.2355
-0.069,0.8545,0.923,-0.3925,-0.496,0.889,0.884,0.9065,0.646,0.246,0.0295,-0.157,-0.0355,0.397,-0.2395
-0.064,0.845,0.909,-0.3905,-0.4865,0.877,0.894,0.9185,0.6565,0.2525,0.0335,-0.1545,-0.03,0.395,-0.226
-0.058,0.85,0.908,-0.396,-0.483,0.8785,0.9035,0.9285,0.667,0.2595,0.039,-0.1485,-0.026,0.4085,-0.216
-0.0595,0.8625,0.922,-0.4015,-0.491,0.8925,0.9085,0.9355,0.6745,0.2635,0.041,-0.1475,-0.0245,0.415,-0.226
-0.065,0.8545,0.9195,-0.395,-0.4925,0.887,0.914,0.9435,0.6815,0.2675,0.0395,-0.149,-0.0215,0.414,-0.227
-0.061,0.844,0.905,-0.3915,-0.483,0.8745,0.9215,0.955,0.6905,0.271,0.041,-0.1485,-0.017,0.4045,-0.233
-0.0565,0.839,0.8955,-0.3915,-0.476,0.8675,0.9295,0.9665,0.7005,0.2765,0.043,-0.147,-0.014,0.3995,-0.243
-0.0525,0.832,0.884,-0.39,-0.4685,0.858,0.941,0.9795,0.712,0.2865,0.0495,-0.143,-0.012,0.402,-0.243
-0.053,0.8315,0.8845,-0.3895,-0.4685,0.858,0.9455,0.99,0.7185,0.289,0.0495,-0.1465,-0.012,0.3935,-0.2495
-0.054,0.835,0.8895,-0.3905,-0.472,0.862,0.953,0.9995,0.728,0.2935,0.05,-0.144,-0.0085,0.3875,-0.2525
-0.053,0.8285,0.8815,-0.388,-0.467,0.855,0.959,1.008,0.735,0.2985,0.052,-0.1435,-0.004,0.38,-0.247
-0.0545,0.8345,0.889,-0.39,-0.4715,0.8615,0.963,1.0155,0.74,0.2995,0.0525,-0.146,-0.0025,0.385,-0.247
-0.043,0.852,0.895,-0.4045,-0.4695,0.8735,0.9705,1.027,0.7505,0.3085,0.06,-0.139,0.0005,0.401,-0.2425
-0.044,0.8495,0.8935,-0.4025,-0.469,0.8715,0.975,1.036,0.7585,0.3145,0.0615,-0.1385,0.0015,0.4065,-0.24
-0.047,0.837,0.884,-0.395,-0.4655,0.8605,0.983,1.044,0.766,0.319,0.063,-0.137,0.0045,0.4035,-0.2475
-0.0485,0.824,0.8725,-0.388,-0.4605,0.8485,0.989,1.0525,0.775,0.3255,0.0655,-0.136,0.006,0.3915,-0.2575
-0.048,0.812,0.86,-0.382,-0.454,0.836,0.9975,1.065,0.786,0.3335,0.07,-0.1315,0.009,0.3775,-0.264
-0.0365,0.8215,0.858,-0.3925,-0.447,0.84,1.006,1.076,0.796,0.3415,0.077,-0.125,0.0135,0.3865,-0.2625
-0.0385,0.835,0.873,-0.398,-0.4555,0.854,1.005,1.077,0.7955,0.3395,0.0715,-0.1315,0.0125,0.393,-0.2585
-0.04,0.833,0.873,-0.3965,-0.4565,0.853,1.009,1.0845,0.8005,0.3405,0.071,-0.134,0.0115,0.3845,-0.262
-0.035,0.83,0.865,-0.3975,-0.45,0.8475,1.0175,1.0945,0.8115,0.3485,0.0785,-0.129,0.0155,0.392,-0.2665
-0.034,0.828,0.862,-0.397,-0.448,0.845,1.0195,1.0985,0.816,0.3515,0.078,-0.128,0.02,0.3855,-0.272
-0.034,0.8265,0.86,-0.396,-0.447,0.8435,1.023,1.1055,0.8225,0.3545,0.0795,-0.128,0.0205,0.382,-0.2715
-0.0355,0.822,0.857,-0.3935,-0.446,0.8395,1.0265,1.1125,0.8285,0.3585,0.081,-0.126,0.0225,0.3855,-0.2665
-0.0295,0.8225,0.852,-0.3965,-0.441,0.8375,1.03,1.119,0.834,0.3635,0.0835,-0.1225,0.025,0.3815,-0.275
-0.0205,0.8255,0.8455,-0.4025,-0.433,0.8355,1.0345,1.1255,0.8405,0.366,0.0845,-0.1225,0.0275,0.381,-0.277
-0.021,0.826,0.847,-0.4025,-0.434,0.8365,1.034,1.1285,0.842,0.3645,0.0835,-0.1255,0.0295,0.383,-0.275
-0.0135,0.8255,0.839,-0.406,-0.426,0.832,1.0375,1.135,0.85,0.371,0.089,-0.1205,0.0315,0.3785,-0.2805
-0.012,0.8205,0.8325,-0.404,-0.422,0.8265,1.04,1.139,0.856,0.3735,0.092,-0.117,0.034,0.377,-0.277
-0.0175,0.8215,0.8385,-0.402,-0.428,0.83,1.0395,1.141,0.8595,0.376,0.094,-0.1155,0.0355,0.387,-0.273
-0.016,0.8255,0.8415,-0.405,-0.4285,0.8335,1.04,1.144,0.8645,0.379,0.097,-0.1155,0.0335,0.3965,-0.2675
-0.0165,0.8265,0.843,-0.405,-0.4295,0.835,1.0395,1.1475,0.8655,0.381,0.098,-0.115,0.035,0.3995,-0.2705
-0.0135,0.8175,0.831,-0.402,-0.422,0.824,1.043,1.1535,0.874,0.39,0.103,-0.1105,0.039,0.3815,-0.284
-0.012,0.8165,0.829,-0.4025,-0.4205,0.8225,1.0415,1.154,0.876,0.3895,0.103,-0.1125,0.038,0.3705,-0.294
-0.0115,0.8175,0.829,-0.403,-0.42,0.823,1.039,1.151,0.8735,0.3875,0.0995,-0.1155,0.0385,0.3645,-0.3145
-0.0095,0.812,0.8215,-0.4015,-0.4155,0.8165,1.0365,1.148,0.8735,0.385,0.0965,-0.1185,0.0395,0.3555,-0.318
-0.0055,0.813,0.818,-0.4035,-0.412,0.8155,1.033,1.149,0.8755,0.3865,0.096,-0.1185,0.042,0.358,-0.302
0.0,0.8075,0.808,-0.4035,-0.404,0.808,1.035,1.1495,0.879,0.391,0.1,-0.115,0.0445,0.3575,-0.291
0.0065,0.8025,0.796,-0.4045,-0.3945,0.799,1.032,1.15,0.878,0.391,0.1005,-0.1155,0.045,0.3405,-0.286
0.005,0.7995,0.794,-0.4025,-0.3945,0.797,1.0295,1.151,0.88,0.395,0.102,-0.1105,0.045,0.3445,-0.2715
-0.0025,0.8085,0.811,-0.403,-0.4065,0.8095,1.026,1.144,0.878,0.3925,0.103,-0.11,0.0425,0.3635,-0.2675
-0.004,0.807,0.811,-0.4015,-0.4075,0.809,1.018,1.138,0.874,0.391,0.1,-0.114,0.041,0.3625,-0.2765
-0.004,0.7925,0.7965,-0.394,-0.4,0.794,1.0135,1.135,0.8745,0.3925,0.1005,-0.1125,0.043,0.354,-0.27
0.0,0.801,0.801,-0.4005,-0.4005,0.801,1.0035,1.1265,0.8695,0.3875,0.097,-0.114,0.045,0.353,-0.27
-0.004,0.7965,0.801,-0.396,-0.4025,0.7985,0.995,1.121,0.864,0.383,0.0945,-0.117,0.043,0.357,-0.2695
-0.0055,0.798,0.8035,-0.3965,-0.4045,0.8005,0.9885,1.114,0.8595,0.38,0.093,-0.1195,0.0405,0.356,-0.269
-0.0005,0.808,0.8085,-0.404,-0.4045,0.8085,0.9795,1.104,0.8535,0.377,0.091,-0.121,0.0395,0.358,-0.2685
-0.006,0.802,0.808,-0.398,-0.407,0.805,0.971,1.0965,0.8495,0.373,0.09,-0.1205,0.0405,0.353,-0.2635
-0.0075,0.8045,0.8125,-0.399,-0.41,0.8085,0.96,1.086,0.843,0.3695,0.0865,-0.1205,0.041,0.349,-0.264
-0.009,0.7995,0.8085,-0.3955,-0.409,0.8045,0.952,1.0795,0.839,0.367,0.0875,-0.1205,0.0385,0.342,-0.274
-0.0105,0.8035,0.814,-0.3965,-0.4125,0.809,0.943,1.0695,0.832,0.3655,0.087,-0.1195,0.0385,0.341,-0.2785
-0.012,0.8115,0.8235,-0.4,-0.4175,0.8175,0.9315,1.056,0.824,0.363,0.0855,-0.119,0.0375,0.351,-0.272
-0.0075,0.815,0.8225,-0.404,-0.415,0.819,0.92,1.046,0.816,0.357,0.0835,-0.1215,0.035,0.358,-0.26
-0.0015,0.813,0.8145,-0.4055,-0.408,0.8135,0.9085,1.0355,0.806,0.35,0.0805,-0.122,0.034,0.3645,-0.248
-0.004,0.8125,0.8165,-0.404,-0.4105,0.8145,0.8945,1.022,0.7975,0.346,0.0785,-0.122,0.031,0.363,-0.259
-0.009,0.814,0.823,-0.4025,-0.416,0.8185,0.883,1.009,0.7875,0.341,0.075,-0.1245,0.028,0.3535,-0.263
-0.0115,0.806,0.8175,-0.397,-0.4145,0.812,0.874,0.997,0.7795,0.338,0.0745,-0.1225,0.0295,0.3395,-0.252
-0.0085,0.8055,0.8145,-0.3985,-0.4115,0.81,0.8615,0.983,0.7685,0.3325,0.0725,-0.1225,0.0295,0.3405,-0.249
-0.007,0.802,0.809,-0.398,-0.408,0.8055,0.846,0.967,0.756,0.3245,0.069,-0.126,0.0265,0.3505,-0.2405
-0.008,0.804,0.812,-0.3985,-0.41,0.808,0.8325,0.9505,0.7455,0.3185,0.067,-0.126,0.026,0.35,-0.236
-0.0045,0.811,0.8155,-0.403,-0.4105,0.8135,0.817,0.9315,0.731,0.3095,0.062,-0.1305,0.022,0.346,-0.2355
-0.0075,0.8085,0.816,-0.4005,-0.412,0.8125,0.8055,0.916,0.7185,0.3025,0.0585,-0.1315,0.0175,0.3375,-0.239
-0.017,0.804,0.8215,-0.3935,-0.4195,0.8125,0.7965,0.904,0.7095,0.2985,0.059,-0.1285,0.0155,0.328,-0.241
-0.027,0.808,0.835,-0.3905,-0.431,0.8215,0.778,0.884,0.694,0.289,0.055,-0.1325,0.014,0.3395,-0.236
-0.0325,0.8165,0.849,-0.392,-0.4405,0.8325,0.7605,0.8625,0.6775,0.2785,0.0495,-0.1345,0.0115,0.356,-0.2245
-0.0325,0.8115,0.8445,-0.3895,-0.4385,0.828,0.744,0.8435,0.665,0.2685,0.0445,-0.1365,0.009,0.354,-0.2075
-0.0355,0.8075,0.8425,-0.386,-0.439,0.825,0.7275,0.825,0.646,0.2545,0.039,-0.142,0.004,0.3415,-0.2095
-0.036,0.811,0.847,-0.3875,-0.4415,0.829,0.7125,0.808,0.6315,0.246,0.0355,-0.144,0.0,0.3415,-0.2065
-0.05,0.799,0.8495,-0.3745,-0.45,0.8245,0.692,0.787,0.6165,0.2375,0.03,-0.1455,-0.002,0.35,-0.1965
-0.06,0.793,0.8525,-0.3665,-0.4565,0.8225,0.6715,0.7615,0.596,0.223,0.0215,-0.1515,-0.005,0.3465,-0.204
-0.0525,0.801,0.854,-0.3745,-0.453,0.8275,0.656,0.744,0.5835,0.215,0.0195,-0.153,-0.008,0.347,-0.205
-0.054,0.807,0.861,-0.3765,-0.4575,0.834,0.643,0.728,0.5705,0.208,0.0175,-0.153,-0.0125,0.3565,-0.2035
-0.058,0.808,0.8665,-0.375,-0.462,0.8375,0.628,0.7065,0.5545,0.198,0.012,-0.1575,-0.0195,0.3515,-0.2065
-0.0635,0.8075,0.871,-0.372,-0.4675,0.8395,0.6135,0.689,0.539,0.1905,0.0085,-0.158,-0.0235,0.35,-0.1905
-0.0705,0.8075,0.878,-0.3685,-0.4745,0.843,0.598,0.6695,0.522,0.182,0.0045,-0.1585,-0.026,0.3625,-0.171
-0.078,0.812,0.89,-0.367,-0.484,0.851,0.581,0.65,0.5075,0.1725,0.0005,-0.162,-0.0325,0.373,-0.167
-0.0795,0.8145,0.8935,-0.3675,-0.4865,0.854,0.565,0.632,0.492,0.1615,-0.0055,-0.1655,-0.0365,0.3705,-0.165
-0.0795,0.804,0.884,-0.3625,-0.4815,0.844,0.55,0.614,0.4765,0.1505,-0.0105,-0.1665,-0.0365,0.3595,-0.1645
-0.082,0.8025,0.8845,-0.36,-0.4835,0.8435,0.537,0.5975,0.4625,0.1425,-0.0125,-0.1655,-0.04,0.3615,-0.158
-0.0845,0.8085,0.893,-0.362,-0.489,0.851,0.5245,0.5805,0.451,0.1365,-0.0145,-0.1655,-0.045,0.3665,-0.1455
-0.0905,0.8175,0.908,-0.3635,-0.499,0.863,0.509,0.563,0.437,0.1255,-0.017,-0.1655,-0.0505,0.3745,-0.1385
-0.1005,0.805,0.905,-0.3525,-0.502,0.855,0.494,0.5445,0.4215,0.115,-0.0225,-0.1695,-0.0545,0.37,-0.137
-0.1055,0.7985,0.9045,-0.3465,-0.5045,0.8515,0.4805,0.528,0.4065,0.1055,-0.028,-0.172,-0.0565,0.3695,-0.138
-0.104,0.8145,0.9185,-0.3555,-0.511,0.8665,0.4635,0.508,0.3885,0.0935,-0.0345,-0.175,-0.059,0.3805,-0.138
-0.1115,0.811,0.9225,-0.35,-0.5165,0.867,0.446,0.4865,0.37,0.0825,-0.042,-0.181,-0.061,0.3745,-0.1435
-0.116,0.81,0.926,-0.3475,-0.52,0.868,0.43,0.4665,0.353,0.0715,-0.048,-0.1835,-0.064,0.373,-0.1365
-0.113,0.8185,0.9315,-0.3525,-0.522,0.875,0.4145,0.451,0.338,0.062,-0.049,-0.1835,-0.067,0.382,-0.122
-0.113,0.815,0.928,-0.351,-0.52,0.8715,0.405,0.4395,0.3265,0.0565,-0.047,-0.179,-0.07,0.386,-0.117
-0.112,0.803,0.915,-0.3455,-0.513,0.859,0.395,0.4265,0.3165,0.0525,-0.047,-0.177,-0.0725,0.3855,-0.108
-0.117,0.814,0.931,-0.3485,-0.5235,0.8725,0.3775,0.4045,0.2975,0.04,-0.0545,-0.185,-0.077,0.3955,-0.103
-0.12,0.828,0.948,-0.354,-0.5335,0.888,0.362,0.386,0.2805,0.027,-0.0605,-0.1895,-0.0825,0.4015,-0.103
-0.1225,0.8325,0.955,-0.355,-0.538,0.894,0.351,0.3735,0.27,0.022,-0.0625,-0.188,-0.0865,0.4145,-0.103
-0.1265,0.8355,0.9625,-0.3545,-0.544,0.899,0.339,0.356,0.2575,0.0145,-0.0665,-0.1895,-0.089,0.4215,-0.0995
-0.1295,0.8295,0.959,-0.35,-0.544,0.8945,0.3295,0.3435,0.247,0.006,-0.07,-0.193,-0.0925,0.4095,-0.0935
-0.1365,0.8255,0.9615,-0.3445,-0.5485,0.8935,0.317,0.3285,0.233,-0.0025,-0.0755,-0.1965,-0.0975,0.4045,-0.094
-0.1405,0.828,0.9685,-0.3435,-0.554,0.898,0.305,0.314,0.2205,-0.0095,-0.0765,-0.1975,-0.101,0.4095,-0.0975
-0.1405,0.834,0.9745,-0.347,-0.557,0.9045,0.2975,0.3025,0.2105,-0.016,-0.079,-0.1985,-0.1045,0.4135,-0.094
-0.1345,0.83,0.965,-0.348,-0.5495,0.8975,0.287,0.2885,0.198,-0.024,-0.083,-0.1995,-0.1045,0.3975,-0.085
-0.1355,0.8285,0.964,-0.3465,-0.5495,0.8965,0.2775,0.275,0.187,-0.031,-0.0845,-0.202,-0.1055,0.3925,-0.078
-0.1365,0.834,0.97,-0.3485,-0.5525,0.902,0.267,0.262,0.1755,-0.0395,-0.091,-0.2045,-0.1095,0.395,-0.077
-0.1395,0.831,0.9705,-0.346,-0.5545,0.901,0.259,0.251,0.167,-0.0445,-0.092,-0.203,-0.113,0.3945,-0.0705
-0.1445,0.8295,0.9735,-0.3425,-0.5585,0.9015,0.2535,0.2405,0.1595,-0.048,-0.0915,-0.2015,-0.1165,0.3915,-0.071
-0.14,0.8225,0.9625,-0.341,-0.551,0.8925,0.246,0.231,0.15,-0.0545,-0.094,-0.202,-0.118,0.383,-0.076
-0.1415,0.824,0.9655,-0.341,-0.553,0.8945,0.2325,0.2155,0.1355,-0.065,-0.1,-0.2075,-0.12,0.387,-0.0715
-0.142,0.838,0.98,-0.348,-0.5605,0.909,0.2205,0.2,0.1235,-0.0745,-0.105,-0.21,-0.124,0.4045,-0.0605
-0.139,0.8445,0.9835,-0.353,-0.5605,0.914,0.2145,0.1905,0.1165,-0.0795,-0.1065,-0.207,-0.1255,0.4145,-0.048
-0.143,0.85,0.993,-0.3535,-0.5675,0.9215,0.204,0.177,0.105,-0.0885,-0.111,-0.209,-0.1275,0.417,-0.0435
-0.1495,0.852,1.0015,-0.351,-0.575,0.927,0.1975,0.1675,0.0955,-0.092,-0.111,-0.2085,-0.131,0.4265,-0.0365
-0.1515,0.8495,1.001,-0.349,-0.576,0.9255,0.189,0.1555,0.086,-0.098,-0.114,-0.209,-0.1335,0.428,-0.032
-0.1495,0.8535,1.003,-0.3515,-0.576,0.928,0.1835,0.1495,0.081,-0.102,-0.1135,-0.208,-0.137,0.4345,-0.0335
-0.1475,0.8585,1.0055,-0.3555,-0.576,0.932,0.1775,0.144,0.0745,-0.1035,-0.113,-0.2055,-0.137,0.443,-0.0275
-0.1475,0.864,1.0115,-0.3585,-0.579,0.938,0.1695,0.1335,0.065,-0.109,-0.116,-0.2065,-0.1385,0.446,-0.0245
-0.142,0.876,1.018,-0.367,-0.5795,0.947,0.169,0.1295,0.0625,-0.1075,-0.111,-0.202,-0.1415,0.4475,-0.028
-0.14,0.878,1.0185,-0.369,-0.5785,0.948,0.1615,0.1205,0.055,-0.1115,-0.112,-0.2025,-0.1425,0.4415,-0.024
-0.1495,0.877,1.0265,-0.3635,-0.588,0.9515,0.1525,0.109,0.045,-0.119,-0.117,-0.207,-0.146,0.4465,-0.026
-0.1555,0.88,1.035,-0.3625,-0.5945,0.9575,0.146,0.102,0.035,-0.124,-0.121,-0.2095,-0.1495,0.4525,-0.025
-0.168,0.86,1.028,-0.346,-0.5975,0.944,0.139,0.0925,0.025,-0.131,-0.127,-0.215,-0.151,0.4395,-0.021
-0.1845,0.8385,1.0235,-0.327,-0.6035,0.931,0.1285,0.0795,0.0145,-0.1395,-0.1355,-0.223,-0.1535,0.437,-0.019
-0.1845,0.834,1.019,-0.325,-0.601,0.9265,0.122,0.072,0.007,-0.145,-0.139,-0.2255,-0.1545,0.443,-0.0145
-0.1775,0.8425,1.02,-0.3325,-0.5985,0.9315,0.118,0.0665,0.0045,-0.1465,-0.138,-0.224,-0.156,0.4365,-0.02
-0.169,0.8605,1.029,-0.346,-0.5985,0.9445,0.1155,0.0635,0.0025,-0.1465,-0.135,-0.219,-0.155,0.439,-0.024
-0.1685,0.8655,1.0345,-0.3485,-0.601,0.95,0.114,0.059,-0.0015,-0.1465,-0.134,-0.217,-0.157,0.4495,-0.026
-0.1725,0.862,1.0345,-0.345,-0.603,0.9485,0.11,0.053,-0.006,-0.151,-0.137,-0.22,-0.161,0.4415,-0.029
-0.1755,0.8555,1.031,-0.34,-0.6025,0.943,0.1045,0.047,-0.0135,-0.1575,-0.1395,-0.222,-0.16,0.438,-0.023
-0.1805,0.8465,1.0275,-0.333,-0.6035,0.937,0.096,0.0415,-0.021,-0.1635,-0.143,-0.226,-0.161,0.442,-0.0075
-0.1755,0.8485,1.024,-0.3365,-0.599,0.9365,0.0915,0.035,-0.0255,-0.168,-0.1455,-0.226,-0.1625,0.4335,-0.005
-0.172,0.851,1.023,-0.3395,-0.597,0.937,0.0885,0.0285,-0.0315,-0.1715,-0.1475,-0.2255,-0.1625,0.4275,-0.0145
-0.169,0.851,1.0195,-0.341,-0.5935,0.935,0.086,0.026,-0.0355,-0.1745,-0.147,-0.2265,-0.163,0.427,-0.006
-0.168,0.867,1.035,-0.3495,-0.601,0.951,0.084,0.021,-0.039,-0.1765,-0.147,-0.226,-0.164,0.4395,-0.0005
-0.1735,0.8705,1.044,-0.3485,-0.6085,0.957,0.082,0.0185,-0.0415,-0.177,-0.144,-0.223,-0.1645,0.448,-0.0075
-0.178,0.857,1.035,-0.3395,-0.606,0.946,0.0775,0.0125,-0.048,-0.182,-0.147,-0.2245,-0.164,0.439,-0.0025
-0.1875,0.85,1.037,-0.331,-0.612,0.9435,0.074,0.007,-0.054,-0.1865,-0.152,-0.2295,-0.168,0.4435,0.003
-0.1905,0.8535,1.044,-0.331,-0.617,0.9485,0.069,0.003,-0.058,-0.188,-0.1515,-0.2295,-0.167,0.4535,-0.0015
-0.1905,0.85,1.041,-0.3295,-0.6155,0.9455,0.063,-0.002,-0.0625,-0.191,-0.1525,-0.231,-0.1665,0.4495,-0.004
-0.1955,0.841,1.0365,-0.323,-0.6155,0.939,0.064,-0.003,-0.0645,-0.1915,-0.154,-0.2305,-0.169,0.4495,0.0005
-0.1925,0.851,1.0435,-0.329,-0.618,0.9475,0.063,-0.0055,-0.068,-0.192,-0.155,-0.229,-0.1685,0.453,-0.001
-0.1855,0.8585,1.044,-0.3365,-0.6145,0.951,0.0635,-0.004,-0.065,-0.19,-0.1525,-0.2275,-0.1705,0.45,-0.0045
-0.185,0.859,1.044,-0.337,-0.614,0.9515,0.0635,-0.005,-0.068,-0.1925,-0.1525,-0.226,-0.1695,0.4455,-0.005
-0.189,0.857,1.046,-0.334,-0.617,0.9515,0.0595,-0.011,-0.074,-0.1995,-0.158,-0.2315,-0.1705,0.4435,-0.0065
-0.195,0.851,1.046,-0.328,-0.62,0.9485,0.0565,-0.015,-0.0765,-0.2005,-0.16,-0.2315,-0.171,0.444,-0.0075
-0.1955,0.853,1.0485,-0.3285,-0.6215,0.951,0.0555,-0.019,-0.082,-0.2025,-0.161,-0.231,-0.171,0.4495,-0.005
-0.193,0.8475,1.041,-0.3275,-0.6165,0.9445,0.0555,-0.0185,-0.0815,-0.2025,-0.16,-0.23,-0.1725,0.4515,-0.004
-0.1955,0.84,1.0355,-0.322,-0.615,0.938,0.054,-0.0195,-0.084,-0.2045,-0.161,-0.231,-0.1735,0.4475,-0.006
-0.195,0.8445,1.039,-0.3245,-0.6165,0.9415,0.0505,-0.024,-0.0865,-0.2065,-0.1625,-0.232,-0.174,0.4465,-0.005
-0.1915,0.8525,1.044,-0.3305,-0.617,0.9485,0.048,-0.0265,-0.0895,-0.2075,-0.162,-0.23,-0.173,0.4575,0.002
-0.1895,0.8645,1.054,-0.3375,-0.621,0.9595,0.0455,-0.03,-0.092,-0.2105,-0.1625,-0.231,-0.175,0.4705,0.0135
-0.1925,0.8665,1.059,-0.337,-0.6255,0.963,0.0415,-0.0335,-0.094,-0.212,-0.163,-0.2305,-0.1735,0.478,0.015
-0.1915,0.863,1.0545,-0.336,-0.6225,0.959,0.041,-0.036,-0.0975,-0.213,-0.164,-0.2305,-0.1725,0.4745,0.011
-0.1995,0.8545,1.0535,-0.3275,-0.626,0.954,0.0405,-0.0355,-0.099,-0.214,-0.165,-0.2315,-0.174,0.4695,0.005
-0.2075,0.8535,1.0605,-0.323,-0.6335,0.957,0.0375,-0.0395,-0.103,-0.218,-0.1665,-0.2345,-0.1725,0.4655,-0.0015
-0.2025,0.859,1.061,-0.328,-0.631,0.96,0.0385,-0.039,-0.0985,-0.214,-0.1615,-0.2295,-0.171,0.456,-0.0005
-0.2075,0.855,1.0625,-0.324,-0.6345,0.959,0.0365,-0.04,-0.099,-0.2125,-0.162,-0.2275,-0.1715,0.4755,0.0125
-0.199,0.865,1.064,-0.333,-0.631,0.9645,0.0345,-0.0435,-0.102,-0.216,-0.164,-0.2305,-0.172,0.4825,0.0165
-0.1915,0.8675,1.059,-0.338,-0.6245,0.963,0.037,-0.041,-0.101,-0.214,-0.1615,-0.2295,-0.1735,0.4715,0.0155
-0.197,0.8575,1.0545,-0.33,-0.625,0.956,0.0395,-0.042,-0.1025,-0.215,-0.1645,-0.231,-0.1775,0.474,0.0215
-0.2015,0.859,1.06,-0.329,-0.6305,0.9595,0.0405,-0.043,-0.1,-0.2115,-0.1605,-0.2275,-0.179,0.478,0.022
-0.203,0.866,1.0685,-0.3315,-0.635,0.967,0.0405,-0.0425,-0.099,-0.209,-0.157,-0.226,-0.182,0.475,0.0135
-0.1905,0.873,1.0635,-0.341,-0.6265,0.968,0.04,-0.0425,-0.0995,-0.2115,-0.1585,-0.2265,-0.179,0.4745,0.0135
-0.1835,0.8765,1.0605,-0.3465,-0.6215,0.9685,0.0405,-0.0435,-0.1015,-0.2125,-0.1595,-0.226,-0.1775,0.483,0.0195
-0.185,0.8665,1.0515,-0.341,-0.6175,0.959,0.0425,-0.0415,-0.1015,-0.211,-0.1585,-0.225,-0.178,0.467,0.014
-0.192,0.855,1.047,-0.3315,-0.6195,0.951,0.0405,-0.042,-0.102,-0.2125,-0.16,-0.2265,-0.179,0.453,0.012
-0.1985,0.8635,1.062,-0.3325,-0.63,0.963,0.0385,-0.043,-0.1045,-0.215,-0.1635,-0.231,-0.1815,0.4625,0.0145
-0.2,0.8625,1.0625,-0.331,-0.631,0.9625,0.039,-0.043,-0.1055,-0.215,-0.1645,-0.2305,-0.1805,0.472,0.0205
-0.2,0.848,1.048,-0.324,-0.6235,0.948,0.037,-0.0455,-0.1075,-0.216,-0.166,-0.2335,-0.18,0.4625,0.015
-0.1945,0.864,1.0585,-0.335,-0.626,0.9615,0.0355,-0.0455,-0.108,-0.215,-0.1655,-0.2335,-0.1805,0.465,0.0045
-0.1975,0.8805,1.078,-0.3415,-0.6375,0.9795,0.0385,-0.0465,-0.1085,-0.214,-0.162,-0.23,-0.1825,0.4775,0.007
-0.2015,0.8785,1.08,-0.3385,-0.64,0.979,0.0375,-0.049,-0.109,-0.2145,-0.16,-0.2295,-0.182,0.4725,0.0075
-0.2,0.874,1.074,-0.337,-0.6365,0.974,0.036,-0.0495,-0.104,-0.214,-0.159,-0.2275,-0.181,0.4695,0.0085
-0.1995,0.8735,1.073,-0.337,-0.6355,0.9735,0.038,-0.047,-0.1055,-0.2155,-0.1595,-0.2285,-0.1805,0.4675,0.014
-0.198,0.877,1.075,-0.3395,-0.636,0.976,0.039,-0.0465,-0.107,-0.214,-0.16,-0.2295,-0.18,0.474,0.011
-0.197,0.878,1.075,-0.3405,-0.636,0.9765,0.041,-0.047,-0.1065,-0.2125,-0.159,-0.228,-0.1805,0.473,-0.008
-0.2,0.868,1.068,-0.334,-0.6335,0.968,0.037,-0.0495,-0.1105,-0.217,-0.1625,-0.231,-0.178,0.4565,-0.0165
-0.2025,0.8655,1.0675,-0.3315,-0.6345,0.9665,0.034,-0.05,-0.1105,-0.2175,-0.163,-0.2305,-0.1775,0.46,0.0005
-0.197,0.8845,1.0815,-0.3435,-0.6385,0.983,0.038,-0.0475,-0.1075,-0.213,-0.1585,-0.227,-0.1795,0.478,0.008
-0.195,0.881,1.076,-0.343,-0.635,0.9785,0.0415,-0.045,-0.104,-0.21,-0.157,-0.2235,-0.1795,0.4775,0.0095
-0.195,0.8745,1.0695,-0.34,-0.6315,0.972,0.041,-0.045,-0.1055,-0.212,-0.1585,-0.224,-0.1785,0.471,0.0115
-0.198,0.872,1.07,-0.337,-0.6335,0.9715,0.04,-0.045,-0.1045,-0.211,-0.158,-0.225,-0.1805,0.467,0.0045
-0.2015,0.864,1.0655,-0.3315,-0.633,0.9645,0.043,-0.041,-0.1005,-0.2085,-0.1565,-0.2235,-0.1815,0.461,0.008
-0.197,0.8685,1.065,-0.3355,-0.6305,0.967,0.0395,-0.0425,-0.1045,-0.2125,-0.158,-0.226,-0.1795,0.4525,0.0115
-0.1955,0.8655,1.061,-0.335,-0.6275,0.963,0.0425,-0.039,-0.1065,-0.2115,-0.1585,-0.2255,-0.1795,0.4565,0.018
-0.1965,0.879,1.0755,-0.341,-0.6355,0.977,0.0435,-0.0395,-0.1075,-0.211,-0.158,-0.224,-0.1825,0.4755,0.0195
-0.201,0.8905,1.091,-0.3445,-0.6455,0.9905,0.0375,-0.046,-0.1085,-0.211,-0.1575,-0.2255,-0.183,0.479,0.0105
-0.198,0.885,1.083,-0.343,-0.64,0.984,0.0395,-0.0415,-0.105,-0.2085,-0.157,-0.225,-0.1825,0.482,0.014
-0.189,0.893,1.082,-0.352,-0.635,0.9875,0.039,-0.041,-0.1045,-0.21,-0.157,-0.2245,-0.1805,0.486,0.0145
-0.1895,0.8915,1.0805,-0.351,-0.6345,0.986,0.04,-0.0415,-0.105,-0.209,-0.154,-0.222,-0.179,0.4825,0.0075
-0.1895,0.886,1.0755,-0.348,-0.632,0.9805,0.0395,-0.04,-0.1045,-0.2075,-0.153,-0.2205,-0.1785,0.4795,0.0045
-0.187,0.886,1.073,-0.3495,-0.6295,0.9795,0.0375,-0.043,-0.1055,-0.209,-0.154,-0.2205,-0.177,0.48,0.011
-0.188,0.889,1.077,-0.3505,-0.632,0.983,0.0395,-0.0435,-0.1055,-0.2095,-0.155,-0.224,-0.182,0.4775,0.0075
-0.19,0.8895,1.079,-0.35,-0.634,0.9845,0.037,-0.045,-0.107,-0.211,-0.159,-0.227,-0.183,0.4675,0.0015
-0.194,0.887,1.0805,-0.3465,-0.6365,0.9835,0.035,-0.047,-0.11,-0.214,-0.161,-0.228,-0.1825,0.4745,0.0
-0.1945,0.8875,1.082,-0.3465,-0.638,0.985,0.036,-0.0455,-0.1085,-0.2125,-0.159,-0.229,-0.1855,0.476,-0.0125
-0.1905,0.884,1.0745,-0.347,-0.632,0.9795,0.0385,-0.0435,-0.1055,-0.2095,-0.155,-0.2255,-0.1845,0.4735,-0.005
-0.191,0.8935,1.0845,-0.351,-0.637,0.9885,0.042,-0.043,-0.104,-0.208,-0.1535,-0.2225,-0.186,0.4845,0.0045
-0.194,0.8965,1.0905,-0.3515,-0.642,0.9935,0.04,-0.045,-0.1075,-0.211,-0.158,-0.227,-0.188,0.479,-0.0035
-0.1995,0.8855,1.085,-0.343,-0.642,0.985,0.0395,-0.0435,-0.1065,-0.21,-0.1595,-0.2285,-0.188,0.468,-0.01
-0.196,0.8755,1.0715,-0.34,-0.633,0.9735,0.041,-0.042,-0.1035,-0.2085,-0.1585,-0.228,-0.186,0.4615,-0.008
-0.1895,0.8745,1.0645,-0.3425,-0.6265,0.9695,0.0385,-0.0425,-0.1065,-0.209,-0.16,-0.2295,-0.1865,0.462,-0.0085
-0.1885,0.882,1.0705,-0.347,-0.629,0.976,0.0405,-0.041,-0.105,-0.2085,-0.159,-0.229,-0.189,0.4645,-0.005
-0.1875,0.8885,1.076,-0.3505,-0.631,0.982,0.0415,-0.0405,-0.1045,-0.209,-0.157,-0.227,-0.189,0.471,-0.0055
-0.191,0.8925,1.0835,-0.351,-0.6365,0.988,0.04,-0.0405,-0.1035,-0.2075,-0.1555,-0.2265,-0.1915,0.4795,-0.009
-0.1945,0.89,1.0845,-0.3475,-0.639,0.9875,0.042,-0.038,-0.1,-0.205,-0.1555,-0.2275,-0.1935,0.4795,-0.0005
-0.1925,0.8835,1.0755,-0.3455,-0.6335,0.9795,0.0445,-0.0345,-0.099,-0.203,-0.153,-0.226,-0.1915,0.4805,0.004
-0.1905,0.8755,1.0665,-0.3425,-0.628,0.971,0.0455,-0.0345,-0.098,-0.203,-0.153,-0.2255,-0.191,0.4725,0.0035
-0.1955,0.874,1.0695,-0.339,-0.632,0.9715,0.0405,-0.038,-0.1025,-0.2065,-0.16,-0.23,-0.191,0.467,-0.0015
-0.1955,0.879,1.0745,-0.3415,-0.635,0.9765,0.038,-0.042,-0.1065,-0.2095,-0.1625,-0.2345,-0.19,0.472,-0.003
-0.202,0.8775,1.0795,-0.338,-0.64,0.9785,0.041,-0.04,-0.1045,-0.209,-0.1615,-0.2335,-0.1915,0.4745,0.0035
-0.201,0.874,1.075,-0.3365,-0.6375,0.9745,0.041,-0.038,-0.102,-0.207,-0.16,-0.231,-0.192,0.472,0.004
-0.2,0.8785,1.0785,-0.3395,-0.639,0.9785,0.042,-0.0385,-0.104,-0.2075,-0.159,-0.231,-0.193,0.475,-0.002
-0.2025,0.8835,1.086,-0.3405,-0.6435,0.985,0.039,-0.0435,-0.108,-0.2115,-0.164,-0.2345,-0.193,0.4765,-0.0015
-0.1965,0.893,1.0895,-0.348,-0.6425,0.991,0.038,-0.045,-0.1085,-0.212,-0.1645,-0.236,-0.1935,0.48,-0.0045
-0.196,0.888,1.084,-0.346,-0.6395,0.986,0.0385,-0.042,-0.106,-0.2115,-0.162,-0.2335,-0.193,0.478,0.001
-0.1905,0.884,1.074,-0.3465,-0.632,0.979,0.0365,-0.043,-0.105,-0.2105,-0.163,-0.232,-0.192,0.469,-0.0015
-0.1885,0.8875,1.076,-0.3495,-0.6315,0.9815,0.038,-0.044,-0.1075,-0.211,-0.1615,-0.23,-0.1915,0.4735,-0.013
-0.1945,0.8815,1.0765,-0.3435,-0.635,0.979,0.0355,-0.0445,-0.109,-0.2125,-0.1635,-0.2325,-0.1935,0.47,-0.0125
-0.2,0.88,1.08,-0.34,-0.6395,0.98,0.035,-0.0445,-0.109,-0.2105,-0.164,-0.2355,-0.1955,0.4675,-0.0155
-0.199,0.8805,1.0795,-0.341,-0.6385,0.9795,0.0345,-0.0475,-0.111,-0.2125,-0.1655,-0.2345,-0.1935,0.473,-0.0105
-0.195,0.8875,1.0825,-0.346,-0.638,0.985,0.033,-0.049,-0.1105,-0.211,-0.163,-0.2315,-0.1935,0.487,0.006
-0.1915,0.8895,1.0805,-0.349,-0.6355,0.985,0.0365,-0.0465,-0.1065,-0.2065,-0.1575,-0.228,-0.194,0.4945,0.016
-0.182,0.8935,1.075,-0.356,-0.628,0.984,0.036,-0.045,-0.1065,-0.2055,-0.156,-0.2265,-0.1925,0.4905,0.014
-0.1765,0.898,1.074,-0.3605,-0.6245,0.986,0.0385,-0.0445,-0.105,-0.203,-0.1535,-0.2245,-0.1915,0.481,0.01
-0.18,0.893,1.073,-0.3565,-0.626,0.983,0.041,-0.043,-0.104,-0.202,-0.1535,-0.224,-0.1915,0.4665,0.0025
-0.1865,0.8915,1.078,-0.3525,-0.6315,0.9845,0.038,-0.043,-0.1055,-0.2055,-0.156,-0.227,-0.1925,0.4645,-0.001
-0.194,0.887,1.0805,-0.3465,-0.637,0.9835,0.0355,-0.045,-0.108,-0.209,-0.1585,-0.2295,-0.1925,0.466,0.0065
-0.196,0.888,1.084,-0.346,-0.6395,0.986,0.03,-0.05,-0.1115,-0.2125,-0.1585,-0.23,-0.19,0.4805,0.0115
-0.188,0.895,1.0825,-0.3535,-0.6345,0.9885,0.0315,-0.0485,-0.1085,-0.21,-0.154,-0.226,-0.1895,0.485,0.009
-0.179,0.8975,1.0765,-0.359,-0.627,0.987,0.034,-0.047,-0.1075,-0.2075,-0.1535,-0.2245,-0.19,0.475,0.002
-0.184,0.889,1.073,-0.3525,-0.628,0.981,0.029,-0.0525,-0.1135,-0.2135,-0.1585,-0.229,-0.1905,0.475,0.0035
-0.191,0.884,1.075,-0.3465,-0.6325,0.9795,0.0275,-0.053,-0.114,-0.2155,-0.1585,-0.2295,-0.19,0.4785,0.0045
-0.195,0.8895,1.0845,-0.3475,-0.639,0.9865,0.022,-0.0585,-0.1195,-0.2205,-0.163,-0.234,-0.1895,0.4855,-0.001
-0.2125,0.869,1.0815,-0.3285,-0.6465,0.9755,0.014,-0.067,-0.1285,-0.228,-0.171,-0.241,-0.189,0.4805,-0.0025
-0.218,0.8625,1.08,-0.322,-0.6485,0.971,0.013,-0.069,-0.128,-0.228,-0.17,-0.2395,-0.1895,0.4745,-0.0085
-0.2115,0.881,1.093,-0.335,-0.6515,0.987,0.0165,-0.066,-0.125,-0.2245,-0.166,-0.237,-0.1935,0.48,-0.0105
-0.2135,0.888,1.1015,-0.337,-0.657,0.9945,0.0185,-0.063,-0.122,-0.219,-0.16,-0.2325,-0.1955,0.4855,-0.006
-0.211,0.8835,1.0945,-0.336,-0.6525,0.989,0.02,-0.0605,-0.119,-0.2155,-0.1565,-0.2285,-0.194,0.4855,0.004
-0.2075,0.8705,1.078,-0.3315,-0.642,0.9745,0.0215,-0.061,-0.119,-0.217,-0.159,-0.2275,-0.191,0.474,0.01
-0.204,0.8755,1.0795,-0.3355,-0.641,0.9775,0.0185,-0.064,-0.1215,-0.2185,-0.1585,-0.2285,-0.1895,0.477,0.0085
-0.2025,0.888,1.0905,-0.343,-0.646,0.9895,0.014,-0.068,-0.124,-0.222,-0.1615,-0.2315,-0.1935,0.4975,0.015
-0.2055,0.8845,1.09,-0.339,-0.6475,0.987,0.013,-0.069,-0.123,-0.2225,-0.1625,-0.231,-0.1945,0.489,0.003
-0.205,0.879,1.084,-0.337,-0.644,0.9815,0.0145,-0.067,-0.123,-0.221,-0.1595,-0.229,-0.191,0.4795,0.0015
-0.205,0.8805,1.085,-0.338,-0.6445,0.9825,0.0135,-0.0685,-0.1245,-0.221,-0.161,-0.2295,-0.1925,0.4835,0.011
-0.203,0.8895,1.0925,-0.3435,-0.647,0.991,0.011,-0.072,-0.126,-0.222,-0.163,-0.2305,-0.194,0.4885,0.0045
-0.2,0.883,1.083,-0.3415,-0.641,0.983,0.0085,-0.0745,-0.1305,-0.2245,-0.1665,-0.2335,-0.1945,0.4865,0.009
-0.2025,0.8755,1.0785,-0.337,-0.64,0.977,0.01,-0.0735,-0.1295,-0.2235,-0.166,-0.2345,-0.1955,0.4815,0.019
-0.2035,0.8845,1.0875,-0.3405,-0.645,0.986,0.0085,-0.075,-0.131,-0.2245,-0.165,-0.233,-0.1945,0.487,0.0155
-0.215,0.8775,1.092,-0.3315,-0.653,0.985,0.005,-0.078,-0.1335,-0.227,-0.1695,-0.236,-0.1975,0.4795,0.0135
-0.219,0.8805,1.099,-0.3305,-0.6585,0.9895,0.0035,-0.0815,-0.135,-0.229,-0.171,-0.2385,-0.198,0.4775,0.012
-0.2085,0.8845,1.093,-0.338,-0.65,0.9885,0.001,-0.0835,-0.138,-0.2315,-0.172,-0.239,-0.1955,0.4715,0.002
-0.205,0.882,1.0875,-0.3385,-0.6455,0.9845,0.0015,-0.082,-0.136,-0.2305,-0.1715,-0.2355,-0.195,0.4675,0.0035
-0.207,0.88,1.087,-0.3365,-0.6465,0.9835,-0.0015,-0.0835,-0.137,-0.2295,-0.17,-0.2335,-0.195,0.4785,0.015
-0.2095,0.8845,1.0935,-0.3375,-0.651,0.989,-0.0035,-0.0855,-0.1395,-0.2315,-0.1695,-0.235,-0.198,0.4955,0.019
-0.209,0.889,1.098,-0.34,-0.653,0.9935,-0.0045,-0.0885,-0.141,-0.2325,-0.169,-0.2325,-0.196,0.4885,0.0145
-0.212,0.883,1.0945,-0.3355,-0.6525,0.9885,-0.007,-0.0905,-0.1415,-0.233,-0.1705,-0.233,-0.195,0.4765,0.01
-0.21,0.8915,1.101,-0.341,-0.655,0.996,-0.008,-0.0905,-0.143,-0.235,-0.171,-0.234,-0.1975,0.492,0.01
-0.206,0.8925,1.0985,-0.343,-0.652,0.9955,-0.0085,-0.091,-0.1445,-0.235,-0.1705,-0.233,-0.198,0.4965,0.0175
-0.207,0.889,1.096,-0.341,-0.651,0.9925,-0.009,-0.0925,-0.1445,-0.234,-0.171,-0.2335,-0.198,0.489,0.018
-0.2065,0.8875,1.094,-0.3405,-0.6495,0.9905,-0.01,-0.093,-0.144,-0.233,-0.1715,-0.2335,-0.1985,0.49,0.0135
-0.2095,0.883,1.092,-0.337,-0.65,0.9875,-0.011,-0.093,-0.1455,-0.235,-0.173,-0.2355,-0.2005,0.49,0.011
-0.2095,0.88,1.0895,-0.3355,-0.649,0.985,-0.013,-0.095,-0.1455,-0.235,-0.172,-0.237,-0.203,0.4685,-0.0005
-0.2095,0.877,1.0865,-0.334,-0.6475,0.982,-0.012,-0.0955,-0.1465,-0.2345,-0.1715,-0.2365,-0.203,0.469,0.0045
-0.21,0.8865,1.096,-0.338,-0.6525,0.991,-0.0135,-0.096,-0.1485,-0.235,-0.1695,-0.2355,-0.2015,0.486,0.0065
-0.207,0.891,1.0975,-0.342,-0.652,0.994,-0.0165,-0.0985,-0.1465,-0.2345,-0.1695,-0.236,-0.2015,0.486,0.004
-0.2055,0.8855,1.0905,-0.34,-0.6475,0.988,-0.017,-0.1,-0.1485,-0.236,-0.171,-0.2365,-0.202,0.494,0.0205
-0.2055,0.8845,1.0905,-0.3395,-0.6475,0.9875,-0.019,-0.1005,-0.1505,-0.238,-0.1685,-0.2345,-0.201,0.495,0.0245
-0.2075,0.8785,1.086,-0.3355,-0.6465,0.9825,-0.021,-0.1045,-0.1515,-0.2405,-0.17,-0.236,-0.199,0.492,0.029
-0.205,0.8765,1.0815,-0.336,-0.6425,0.979,-0.0235,-0.108,-0.1555,-0.2425,-0.171,-0.239,-0.2005,0.4915,0.0235
-0.2035,0.8765,1.08,-0.337,-0.641,0.9785,-0.0245,-0.108,-0.1575,-0.2445,-0.1705,-0.237,-0.2,0.4795,0.015
-0.2035,0.8695,1.073,-0.333,-0.6375,0.971,-0.0245,-0.1075,-0.1575,-0.245,-0.169,-0.235,-0.196,0.467,0.015
-0.2025,0.8745,1.077,-0.336,-0.639,0.9755,-0.028,-0.1125,-0.161,-0.2455,-0.1705,-0.238,-0.1975,0.467,0.007
-0.2075,0.88,1.0875,-0.3365,-0.647,0.9835,-0.03,-0.1175,-0.1635,-0.2485,-0.1735,-0.2405,-0.1985,0.4785,0.0115
-0.2115,0.881,1.0925,-0.3345,-0.6515,0.9865,-0.0285,-0.1155,-0.1635,-0.248,-0.171,-0.238,-0.201,0.488,0.019
-0.2075,0.878,1.0855,-0.3355,-0.646,0.982,-0.0265,-0.112,-0.161,-0.2445,-0.168,-0.233,-0.1995,0.4905,0.0275
-0.2135,0.8645,1.078,-0.3255,-0.6455,0.971,-0.0275,-0.1125,-0.1615,-0.245,-0.168,-0.233,-0.1985,0.4865,0.0255
-0.225,0.8655,1.0905,-0.32,-0.6575,0.978,-0.0345,-0.12,-0.168,-0.2515,-0.173,-0.238,-0.1995,0.492,0.018
-0.2195,0.8695,1.0885,-0.325,-0.6535,0.979,-0.0365,-0.1215,-0.168,-0.251,-0.172,-0.2365,-0.1975,0.49,0.027
-0.215,0.871,1.0855,-0.328,-0.65,0.9785,-0.033,-0.119,-0.166,-0.247,-0.17,-0.234,-0.1975,0.481,0.0315
-0.214,0.8715,1.086,-0.329,-0.6495,0.979,-0.035,-0.118,-0.167,-0.2485,-0.17,-0.2375,-0.199,0.474,0.0245
-0.212,0.867,1.0795,-0.3275,-0.6455,0.973,-0.0345,-0.115,-0.166,-0.2455,-0.168,-0.235,-0.199,0.4595,0.0225
-0.2125,0.8695,1.082,-0.3285,-0.647,0.976,-0.0315,-0.113,-0.1645,-0.244,-0.1665,-0.232,-0.198,0.46,0.0215
-0.214,0.8685,1.083,-0.3275,-0.648,0.976,-0.0325,-0.115,-0.1665,-0.2455,-0.1675,-0.233,-0.2,0.4615,0.016
-0.2155,0.874,1.09,-0.329,-0.6525,0.9825,-0.0355,-0.121,-0.17,-0.2475,-0.1685,-0.233,-0.2,0.465,0.0165
-0.2075,0.884,1.0915,-0.3385,-0.649,0.988,-0.038,-0.1255,-0.172,-0.2485,-0.1705,-0.2335,-0.1985,0.4715,0.0165
-0.205,0.8815,1.0865,-0.338,-0.6455,0.984,-0.04,-0.129,-0.1745,-0.249,-0.171,-0.235,-0.201,0.4745,0.0205
-0.2065,0.8805,1.087,-0.337,-0.6465,0.984,-0.041,-0.129,-0.175,-0.252,-0.172,-0.2355,-0.203,0.4785,0.026
-0.2075,0.885,1.0925,-0.339,-0.6495,0.989,-0.04,-0.131,-0.177,-0.2525,-0.172,-0.235,-0.204,0.4825,0.03
-0.21,0.88,1.0895,-0.335,-0.6495,0.985,-0.044,-0.1345,-0.182,-0.2575,-0.1745,-0.2375,-0.204,0.473,0.0275
-0.2145,0.875,1.0895,-0.33,-0.6515,0.9825,-0.047,-0.136,-0.1825,-0.261,-0.1785,-0.2415,-0.2045,0.47,0.017
-0.214,0.876,1.09,-0.331,-0.6515,0.983,-0.0485,-0.1375,-0.181,-0.2595,-0.1785,-0.241,-0.203,0.4735,0.018
-0.209,0.879,1.088,-0.335,-0.648,0.9835,-0.0505,-0.1385,-0.1815,-0.262,-0.176,-0.2385,-0.2025,0.475,0.022
-0.2125,0.8795,1.092,-0.3335,-0.652,0.986,-0.05,-0.1405,-0.1815,-0.261,-0.175,-0.2395,-0.2065,0.479,0.028
-0.2085,0.8775,1.086,-0.3345,-0.647,0.982,-0.0505,-0.141,-0.1825,-0.2595,-0.1755,-0.2395,-0.206,0.473,0.032
-0.2015,0.879,1.0805,-0.3385,-0.6405,0.9795,-0.0485,-0.1375,-0.184,-0.261,-0.174,-0.2365,-0.2055,0.466,0.0245
-0.202,0.8715,1.0735,-0.335,-0.637,0.9725,-0.0465,-0.1375,-0.185,-0.2595,-0.1745,-0.2345,-0.204,0.454,0.018
-0.205,0.877,1.0825,-0.336,-0.6435,0.9795,-0.0505,-0.142,-0.186,-0.2595,-0.1755,-0.2365,-0.2065,0.4675,0.022
-0.2065,0.886,1.092,-0.34,-0.6485,0.989,-0.053,-0.1445,-0.1855,-0.262,-0.1755,-0.238,-0.2095,0.479,0.026
-0.2055,0.8855,1.091,-0.34,-0.6475,0.9885,-0.054,-0.1455,-0.1875,-0.2625,-0.178,-0.2385,-0.207,0.474,0.023
-0.2115,0.883,1.0945,-0.3355,-0.6525,0.9885,-0.057,-0.147,-0.191,-0.2635,-0.1775,-0.2395,-0.209,0.4825,0.032
-0.2135,0.8745,1.088,-0.3305,-0.6505,0.981,-0.057,-0.1475,-0.191,-0.264,-0.1795,-0.239,-0.2095,0.482,0.039
-0.2095,0.8735,1.0835,-0.332,-0.646,0.9785,-0.0555,-0.1465,-0.191,-0.2635,-0.178,-0.2385,-0.208,0.474,0.0335
-0.2025,0.873,1.076,-0.335,-0.639,0.9745,-0.056,-0.1465,-0.1925,-0.262,-0.1745,-0.2365,-0.2055,0.4655,0.026
-0.1985,0.8735,1.072,-0.3375,-0.6345,0.9725,-0.055,-0.146,-0.193,-0.262,-0.177,-0.2365,-0.204,0.466,0.035
-0.1995,0.879,1.0785,-0.3395,-0.6385,0.979,-0.0575,-0.1475,-0.196,-0.265,-0.177,-0.2365,-0.206,0.4795,0.0485
-0.2015,0.888,1.0895,-0.3435,-0.645,0.9885,-0.0595,-0.1495,-0.198,-0.266,-0.1775,-0.2375,-0.2075,0.4885,0.0425
-0.2025,0.8865,1.089,-0.342,-0.645,0.9875,-0.0595,-0.15,-0.1985,-0.266,-0.1775,-0.2355,-0.2045,0.483,0.0415
-0.2065,0.873,1.08,-0.3335,-0.6425,0.9765,-0.0605,-0.1525,-0.1975,-0.267,-0.1775,-0.2345,-0.203,0.471,0.041
-0.2185,0.8745,1.0935,-0.328,-0.6555,0.984,-0.061,-0.1535,-0.1995,-0.2695,-0.179,-0.2365,-0.2065,0.4725,0.0305
-0.223,0.8745,1.0975,-0.326,-0.6595,0.986,-0.065,-0.156,-0.201,-0.2705,-0.18,-0.2375,-0.2055,0.4755,0.024
-0.2195,0.867,1.086,-0.324,-0.652,0.9765,-0.0665,-0.157,-0.201,-0.271,-0.1805,-0.24,-0.2045,0.472,0.027
-0.2175,0.8665,1.0845,-0.3245,-0.6505,0.9755,-0.0655,-0.1545,-0.2005,-0.2705,-0.177,-0.2395,-0.204,0.4735,0.0275
-0.216,0.864,1.08,-0.324,-0.6475,0.972,-0.0665,-0.1555,-0.2,-0.269,-0.1755,-0.237,-0.202,0.471,0.028
-0.2075,0.8635,1.0715,-0.328,-0.639,0.9675,-0.0655,-0.1545,-0.2015,-0.2695,-0.1775,-0.2375,-0.204,0.4705,0.0375
-0.198,0.864,1.062,-0.333,-0.6295,0.963,-0.065,-0.1535,-0.2,-0.2685,-0.1775,-0.237,-0.2045,0.47,0.038
-0.1985,0.867,1.0655,-0.334,-0.6315,0.9665,-0.066,-0.156,-0.201,-0.271,-0.1785,-0.238,-0.205,0.468,0.034
-0.201,0.8825,1.083,-0.341,-0.6415,0.983,-0.0725,-0.1625,-0.208,-0.2785,-0.1845,-0.2435,-0.2045,0.4765,0.041
-0.204,0.896,1.1,-0.346,-0.6515,0.998,-0.073,-0.163,-0.2095,-0.2795,-0.1855,-0.2465,-0.2055,0.48,0.0415
-0.207,0.8915,1.098,-0.342,-0.652,0.995,-0.0705,-0.161,-0.206,-0.2745,-0.1805,-0.241,-0.206,0.475,0.033
-0.204,0.881,1.0845,-0.3385,-0.6435,0.9825,-0.0695,-0.1595,-0.203,-0.2725,-0.178,-0.2405,-0.205,0.4715,0.03
-0.2065,0.8795,1.086,-0.3365,-0.6455,0.9825,-0.067,-0.157,-0.201,-0.2705,-0.176,-0.24,-0.2055,0.474,0.0295
-0.21,0.873,1.0835,-0.3315,-0.646,0.9785,-0.068,-0.156,-0.201,-0.268,-0.1765,-0.2355,-0.2025,0.471,0.0365
-0.2075,0.876,1.0835,-0.334,-0.645,0.98,-0.0675,-0.1565,-0.203,-0.2695,-0.178,-0.234,-0.2025,0.476,0.045
-0.211,0.873,1.084,-0.331,-0.647,0.9785,-0.068,-0.1575,-0.2005,-0.2705,-0.176,-0.233,-0.2015,0.4855,0.0485
-0.218,0.864,1.082,-0.323,-0.6495,0.9735,-0.0695,-0.1595,-0.2035,-0.271,-0.1785,-0.236,-0.204,0.4825,0.049
-0.214,0.8745,1.089,-0.33,-0.651,0.982,-0.0715,-0.162,-0.206,-0.275,-0.182,-0.2385,-0.207,0.4935,0.0565
-0.208,0.8795,1.0875,-0.336,-0.647,0.9835,-0.0725,-0.16,-0.2045,-0.2735,-0.1795,-0.236,-0.206,0.4985,0.0615
-0.208,0.883,1.091,-0.3375,-0.649,0.987,-0.0705,-0.1585,-0.2035,-0.2715,-0.176,-0.233,-0.206,0.492,0.0525
-0.2105,0.8865,1.0965,-0.338,-0.653,0.9915,-0.072,-0.16,-0.2035,-0.272,-0.177,-0.2345,-0.2065,0.493,0.047
-0.2125,0.8905,1.103,-0.339,-0.6575,0.9965,-0.069,-0.16,-0.204,-0.271,-0.1785,-0.2355,-0.207,0.4895,0.0445
-0.206,0.893,1.099,-0.3435,-0.652,0.996,-0.0695,-0.161,-0.206,-0.2755,-0.1805,-0.2385,-0.2075,0.4815,0.0385
-0.1975,0.8915,1.089,-0.3465,-0.6425,0.99,-0.0725,-0.161,-0.2085,-0.277,-0.1815,-0.24,-0.207,0.47,0.031
-0.203,0.882,1.085,-0.3395,-0.6435,0.9835,-0.073,-0.162,-0.2095,-0.278,-0.183,-0.2395,-0.2055,0.4695,0.0325
-0.213,0.872,1.0855,-0.3295,-0.649,0.9785,-0.0745,-0.1645,-0.2105,-0.28,-0.1845,-0.24,-0.2065,0.4805,0.041
-0.2135,0.8715,1.0855,-0.329,-0.649,0.9785,-0.074,-0.1645,-0.2075,-0.278,-0.182,-0.238,-0.2075,0.4805,0.0435
-0.2095,0.879,1.0885,-0.335,-0.6485,0.984,-0.077,-0.167,-0.2065,-0.279,-0.1815,-0.2375,-0.206,0.4825,0.0395
-0.2095,0.8865,1.0955,-0.3385,-0.652,0.991,-0.077,-0.1705,-0.2105,-0.28,-0.182,-0.237,-0.206,0.485,0.0335
-0.2145,0.8785,1.0935,-0.332,-0.6535,0.986,-0.0785,-0.1745,-0.213,-0.2845,-0.187,-0.2425,-0.2075,0.485,0.038
-0.2135,0.876,1.09,-0.3315,-0.6515,0.983,-0.079,-0.1745,-0.2105,-0.2825,-0.1865,-0.2425,-0.209,0.4835,0.05
-0.2075,0.88,1.0875,-0.3365,-0.647,0.984,-0.076,-0.1705,-0.2095,-0.2805,-0.1825,-0.2375,-0.206,0.481,0.0535
-0.2055,0.8775,1.0835,-0.336,-0.644,0.9805,-0.0755,-0.1705,-0.211,-0.2815,-0.1835,-0.2385,-0.2055,0.479,0.0525
-0.207,0.8755,1.0825,-0.334,-0.6445,0.979,-0.0745,-0.1705,-0.21,-0.28,-0.181,-0.237,-0.2055,0.474,0.0525
-0.209,0.8815,1.0905,-0.3365,-0.649,0.986,-0.0755,-0.172,-0.2115,-0.281,-0.18,-0.2355,-0.204,0.4735,0.0475
-0.21,0.877,1.087,-0.3335,-0.648,0.982,-0.0745,-0.171,-0.2105,-0.28,-0.1815,-0.237,-0.2055,0.4715,0.044
-0.212,0.881,1.0935,-0.3345,-0.6525,0.9875,-0.0755,-0.17,-0.209,-0.28,-0.181,-0.237,-0.2065,0.476,0.049
-0.21,0.8895,1.0995,-0.34,-0.6545,0.9945,-0.0775,-0.17,-0.21,-0.2805,-0.18,-0.237,-0.207,0.489,0.057
-0.2065,0.883,1.0895,-0.3385,-0.6475,0.9865,-0.0735,-0.1655,-0.208,-0.278,-0.178,-0.2355,-0.2075,0.4815,0.052
-0.2005,0.8895,1.0895,-0.3445,-0.6445,0.9895,-0.0745,-0.167,-0.2085,-0.2785,-0.178,-0.2365,-0.2065,0.4665,0.037
-0.1965,0.893,1.0895,-0.348,-0.6425,0.9915,-0.0785,-0.1695,-0.2095,-0.2795,-0.1785,-0.2355,-0.2015,0.467,0.041
-0.206,0.8925,1.098,-0.343,-0.6515,0.995,-0.077,-0.169,-0.2085,-0.2775,-0.1765,-0.2345,-0.205,0.476,0.051
-0.205,0.893,1.0975,-0.344,-0.651,0.9955,-0.0775,-0.168,-0.209,-0.279,-0.1775,-0.235,-0.206,0.4775,0.0485
-0.1975,0.8975,1.0945,-0.35,-0.6455,0.996,-0.0785,-0.167,-0.209,-0.2765,-0.1745,-0.232,-0.2035,0.483,0.0485
-0.2025,0.894,1.0965,-0.346,-0.649,0.995,-0.0805,-0.168,-0.21,-0.2755,-0.174,-0.233,-0.2035,0.4875,0.0505
-0.2015,0.891,1.0925,-0.3445,-0.6465,0.9915,-0.0825,-0.171,-0.2145,-0.28,-0.1775,-0.2345,-0.2005,0.4855,0.0535
-0.201,0.8915,1.092,-0.345,-0.646,0.9915,-0.0805,-0.17,-0.2125,-0.275,-0.174,-0.233,-0.202,0.485,0.0585
-0.2025,0.89,1.0925,-0.344,-0.647,0.991,-0.0795,-0.1685,-0.2115,-0.276,-0.1755,-0.2345,-0.2025,0.474,0.046
-0.2035,0.891,1.0945,-0.3435,-0.6485,0.9925,-0.0825,-0.171,-0.217,-0.28,-0.179,-0.2395,-0.2035,0.472,0.034
-0.2065,0.8825,1.089,-0.338,-0.647,0.9855,-0.0825,-0.1695,-0.2165,-0.2795,-0.178,-0.241,-0.204,0.473,0.0375
-0.204,0.887,1.091,-0.3415,-0.647,0.989,-0.0815,-0.169,-0.216,-0.279,-0.176,-0.2385,-0.2055,0.478,0.0385
-0.2035,0.889,1.0925,-0.3425,-0.6475,0.991,-0.08,-0.1705,-0.215,-0.277,-0.176,-0.237,-0.2055,0.476,0.0425
-0.204,0.884,1.0875,-0.34,-0.645,0.9855,-0.081,-0.17,-0.2155,-0.2775,-0.1765,-0.236,-0.2015,0.4675,0.0475
-0.1955,0.889,1.084,-0.3465,-0.6395,0.9865,-0.0815,-0.169,-0.2135,-0.2755,-0.1735,-0.232,-0.199,0.4755,0.0555
-0.1975,0.884,1.0815,-0.3435,-0.639,0.9825,-0.0815,-0.169,-0.2135,-0.274,-0.1725,-0.232,-0.202,0.477,0.049
-0.1985,0.8865,1.085,-0.344,-0.641,0.9855,-0.082,-0.167,-0.215,-0.276,-0.173,-0.2345,-0.205,0.482,0.045
-0.195,0.89,1.085,-0.3475,-0.6395,0.9875,-0.081,-0.1665,-0.216,-0.2785,-0.174,-0.235,-0.203,0.482,0.0505
-0.198,0.879,1.0775,-0.3405,-0.6375,0.978,-0.0785,-0.165,-0.215,-0.2765,-0.173,-0.233,-0.202,0.469,0.0505
-0.195,0.879,1.074,-0.342,-0.634,0.9765,-0.075,-0.162,-0.2115,-0.2725,-0.1705,-0.23,-0.2025,0.4555,0.043
-0.201,0.8825,1.083,-0.341,-0.6415,0.9825,-0.081,-0.168,-0.217,-0.278,-0.175,-0.2365,-0.2035,0.452,0.0295
-0.1975,0.8905,1.088,-0.3465,-0.6425,0.9895,-0.083,-0.169,-0.218,-0.28,-0.176,-0.238,-0.2045,0.461,0.042
-0.1905,0.8955,1.086,-0.3525,-0.638,0.9905,-0.083,-0.168,-0.2175,-0.2795,-0.1755,-0.2365,-0.203,0.4625,0.041
-0.1925,0.8795,1.0725,-0.3435,-0.632,0.976,-0.084,-0.17,-0.2185,-0.2815,-0.1765,-0.2385,-0.202,0.4545,0.0295
-0.1985,0.8775,1.076,-0.34,-0.6365,0.977,-0.086,-0.1715,-0.221,-0.283,-0.1785,-0.2405,-0.203,0.4535,0.028
-0.1975,0.8865,1.0835,-0.3445,-0.64,0.985,-0.0885,-0.1725,-0.2225,-0.284,-0.1785,-0.241,-0.201,0.4615,0.0315
-0.1925,0.8935,1.086,-0.3505,-0.6385,0.9895,-0.085,-0.17,-0.2185,-0.281,-0.176,-0.237,-0.2025,0.4705,0.034
-0.2035,0.8935,1.0965,-0.345,-0.6495,0.995,-0.089,-0.172,-0.221,-0.282,-0.179,-0.2395,-0.206,0.48,0.0365
-0.2135,0.883,1.0965,-0.3345,-0.655,0.99,-0.0925,-0.177,-0.2255,-0.287,-0.1825,-0.2435,-0.206,0.494,0.051
-0.218,0.8745,1.093,-0.3285,-0.655,0.984,-0.0925,-0.177,-0.2275,-0.2875,-0.1825,-0.244,-0.2065,0.494,0.0555
-0.2175,0.8745,1.0915,-0.3285,-0.654,0.983,-0.093,-0.177,-0.227,-0.286,-0.1815,-0.244,-0.2055,0.479,0.0505
-0.211,0.8885,1.0995,-0.3385,-0.655,0.994,-0.0915,-0.178,-0.2265,-0.286,-0.1815,-0.243,-0.205,0.4805,0.046
-0.2035,0.8935,1.0965,-0.345,-0.6495,0.995,-0.0915,-0.177,-0.225,-0.283,-0.182,-0.2415,-0.207,0.4865,0.048
-0.2045,0.8895,1.094,-0.3425,-0.6485,0.9915,-0.091,-0.179,-0.225,-0.283,-0.1805,-0.2415,-0.208,0.4885,0.053
-0.206,0.8875,1.093,-0.3405,-0.649,0.99,-0.0885,-0.18,-0.224,-0.2835,-0.1795,-0.2415,-0.206,0.489,0.0555
-0.2005,0.889,1.089,-0.3445,-0.644,0.989,-0.089,-0.1785,-0.22,-0.283,-0.1785,-0.2385,-0.205,0.492,0.053
-0.199,0.8845,1.0835,-0.3425,-0.641,0.984,-0.085,-0.174,-0.2155,-0.2795,-0.1735,-0.2325,-0.204,0.4935,0.059
-0.1985,0.88,1.0785,-0.341,-0.638,0.9795,-0.08,-0.1715,-0.214,-0.2765,-0.1715,-0.2305,-0.2045,0.4765,0.0515
-0.1995,0.882,1.0815,-0.3415,-0.64,0.982,-0.083,-0.174,-0.2175,-0.281,-0.176,-0.236,-0.207,0.473,0.045
-0.1985,0.8865,1.085,-0.344,-0.6415,0.9855,-0.0845,-0.1765,-0.22,-0.2855,-0.18,-0.239,-0.2075,0.4815,0.053
-0.2005,0.89,1.0905,-0.3445,-0.645,0.99,-0.087,-0.1795,-0.2225,-0.288,-0.182,-0.2415,-0.2065,0.479,0.049
-0.2,0.8825,1.0825,-0.3415,-0.6405,0.9825,-0.0885,-0.178,-0.221,-0.288,-0.179,-0.238,-0.204,0.4745,0.0575
-0.203,0.882,1.085,-0.3395,-0.6435,0.9835,-0.0905,-0.18,-0.2235,-0.2895,-0.1815,-0.2375,-0.2035,0.48,0.055
-0.213,0.891,1.104,-0.3385,-0.658,0.9975,-0.0965,-0.1865,-0.229,-0.2935,-0.187,-0.2435,-0.205,0.4905,0.046
-0.21,0.8915,1.1015,-0.3405,-0.655,0.9965,-0.0945,-0.1845,-0.2245,-0.293,-0.1845,-0.2415,-0.2055,0.4855,0.043
-0.213,0.8755,1.089,-0.331,-0.6505,0.9825,-0.0925,-0.1825,-0.2225,-0.292,-0.1845,-0.2405,-0.2065,0.4795,0.0425
-0.2175,0.88,1.0975,-0.331,-0.657,0.9885,-0.095,-0.1855,-0.225,-0.295,-0.1865,-0.244,-0.208,0.4855,0.0455
-0.2125,0.8855,1.098,-0.3365,-0.655,0.992,-0.096,-0.185,-0.227,-0.295,-0.1865,-0.244,-0.2085,0.488,0.049
-0.206,0.881,1.087,-0.3375,-0.6455,0.984,-0.0955,-0.184,-0.226,-0.2915,-0.1845,-0.2395,-0.2055,0.478,0.0515
-0.2005,0.8905,1.0915,-0.345,-0.6455,0.991,-0.093,-0.1835,-0.2245,-0.289,-0.182,-0.235,-0.204,0.479,0.0455
-0.1985,0.8895,1.0885,-0.3455,-0.643,0.989,-0.095,-0.182,-0.2265,-0.291,-0.184,-0.2385,-0.2045,0.4795,0.051
-0.199,0.8855,1.0845,-0.3435,-0.641,0.985,-0.097,-0.1815,-0.226,-0.291,-0.1865,-0.242,-0.207,0.4785,0.0545
-0.2,0.8775,1.0775,-0.3385,-0.638,0.9775,-0.0925,-0.178,-0.2235,-0.288,-0.1855,-0.239,-0.207,0.4675,0.045
-0.199,0.8795,1.078,-0.3405,-0.638,0.979,-0.095,-0.182,-0.224,-0.289,-0.186,-0.24,-0.205,0.4525,0.0415
-0.205,0.884,1.089,-0.3395,-0.6465,0.9865,-0.096,-0.1835,-0.226,-0.2885,-0.187,-0.241,-0.2075,0.4615,0.0475
-0.21,0.881,1.091,-0.3355,-0.65,0.986,-0.095,-0.1835,-0.226,-0.29,-0.1885,-0.242,-0.21,0.4715,0.047
-0.21,0.8885,1.0985,-0.339,-0.654,0.9935,-0.0955,-0.184,-0.2245,-0.288,-0.186,-0.239,-0.209,0.482,0.046
-0.2055,0.8865,1.0915,-0.3405,-0.648,0.989,-0.0935,-0.181,-0.223,-0.2865,-0.185,-0.2365,-0.2065,0.4845,0.0585
-0.2045,0.8875,1.0915,-0.3415,-0.6475,0.9895,-0.0935,-0.181,-0.2225,-0.2855,-0.184,-0.2355,-0.2075,0.483,0.057
-0.21,0.8825,1.0925,-0.336,-0.651,0.9875,-0.0925,-0.1775,-0.222,-0.2835,-0.184,-0.235,-0.208,0.479,0.0605
-0.2025,0.8835,1.086,-0.3405,-0.6435,0.9845,-0.0935,-0.1795,-0.224,-0.2855,-0.1845,-0.2355,-0.2045,0.472,0.067
-0.193,0.8865,1.0795,-0.3465,-0.636,0.983,-0.095,-0.1795,-0.2235,-0.286,-0.183,-0.2345,-0.2025,0.4685,0.058
-0.1945,0.8785,1.073,-0.342,-0.6335,0.9755,-0.0955,-0.181,-0.224,-0.288,-0.1855,-0.239,-0.2055,0.4715,0.062
-0.1975,0.885,1.0825,-0.3435,-0.6395,0.9835,-0.0975,-0.1815,-0.2255,-0.289,-0.185,-0.24,-0.2075,0.4745,0.059
-0.203,0.888,1.091,-0.3425,-0.6465,0.9895,-0.097,-0.181,-0.2245,-0.2885,-0.1825,-0.237,-0.207,0.4835,0.054
-0.205,0.8855,1.09,-0.3405,-0.647,0.9875,-0.0975,-0.1835,-0.224,-0.29,-0.185,-0.238,-0.207,0.4915,0.0555
-0.201,0.8775,1.0785,-0.3385,-0.639,0.978,-0.0975,-0.184,-0.2255,-0.2915,-0.1855,-0.239,-0.2065,0.493,0.058
-0.2035,0.8765,1.08,-0.3365,-0.6415,0.978,-0.1,-0.1855,-0.227,-0.2915,-0.186,-0.2395,-0.2055,0.5015,0.0645
-0.204,0.8915,1.095,-0.344,-0.649,0.9935,-0.1015,-0.184,-0.2265,-0.2905,-0.1865,-0.2405,-0.2065,0.4995,0.057
-0.207,0.89,1.0965,-0.3415,-0.6515,0.9935,-0.099,-0.183,-0.2255,-0.2885,-0.184,-0.239,-0.2075,0.493,0.054
-0.2105,0.879,1.089,-0.334,-0.6495,0.984,-0.098,-0.182,-0.2245,-0.2865,-0.184,-0.238,-0.207,0.4855,0.057
-0.2115,0.878,1.0895,-0.333,-0.65,0.9835,-0.098,-0.1815,-0.224,-0.2855,-0.1825,-0.2365,-0.2085,0.4915,0.0585
-0.2075,0.882,1.0895,-0.3375,-0.648,0.986,-0.098,-0.18,-0.223,-0.2855,-0.181,-0.237,-0.2095,0.495,0.0565
-0.1955,0.8875,1.083,-0.346,-0.639,0.9855,-0.098,-0.179,-0.223,-0.286,-0.1815,-0.2385,-0.207,0.4835,0.0515
-0.2005,0.8845,1.0845,-0.342,-0.642,0.9845,-0.0965,-0.1795,-0.2225,-0.2865,-0.183,-0.24,-0.208,0.4755,0.0485
-0.2065,0.876,1.083,-0.335,-0.6445,0.9795,-0.094,-0.178,-0.221,-0.2865,-0.1835,-0.2415,-0.2115,0.4695,0.038
-0.206,0.876,1.082,-0.335,-0.6435,0.979,-0.097,-0.1805,-0.2235,-0.288,-0.183,-0.2415,-0.2105,0.4675,0.0285
-0.207,0.88,1.087,-0.3365,-0.6465,0.9835,-0.102,-0.185,-0.2285,-0.2925,-0.188,-0.245,-0.2095,0.467,0.026
-0.211,0.8695,1.0805,-0.329,-0.6455,0.975,-0.099,-0.1835,-0.2255,-0.2915,-0.1865,-0.2415,-0.2095,0.4705,0.0385
-0.215,0.8585,1.073,-0.3215,-0.6435,0.9655,-0.0985,-0.1825,-0.222,-0.289,-0.1845,-0.24,-0.208,0.468,0.053
-0.2165,0.8565,1.073,-0.32,-0.644,0.9645,-0.102,-0.1875,-0.228,-0.295,-0.1905,-0.243,-0.204,0.4655,0.052
-0.2125,0.86,1.0725,-0.3235,-0.642,0.966,-0.1035,-0.1895,-0.2315,-0.2975,-0.191,-0.2425,-0.201,0.4705,0.047
-0.2055,0.8665,1.0715,-0.3305,-0.638,0.969,-0.1025,-0.1885,-0.2285,-0.2945,-0.1885,-0.241,-0.201,0.471,0.0505
-0.2025,0.8685,1.071,-0.333,-0.636,0.9695,-0.101,-0.1875,-0.2255,-0.293,-0.1875,-0.24,-0.203,0.4735,0.05
-0.2095,0.8655,1.075,-0.328,-0.642,0.97,-0.1025,-0.188,-0.2275,-0.2935,-0.188,-0.2415,-0.204,0.475,0.0595
-0.217,0.863,1.08,-0.323,-0.648,0.9715,-0.1025,-0.19,-0.2265,-0.294,-0.189,-0.2415,-0.204,0.47,0.067
-0.211,0.8725,1.0835,-0.3305,-0.6465,0.978,-0.1025,-0.189,-0.223,-0.2915,-0.1855,-0.239,-0.2045,0.4685,0.0555
-0.2085,0.8735,1.0815,-0.3325,-0.6445,0.9775,-0.1005,-0.189,-0.225,-0.2905,-0.1835,-0.237,-0.2025,0.4725,0.0525
-0.214,0.8675,1.081,-0.3265,-0.647,0.974,-0.1,-0.1895,-0.2235,-0.2895,-0.184,-0.2375,-0.2035,0.4735,0.0555
-0.2125,0.8755,1.0885,-0.3315,-0.65,0.982,-0.1025,-0.192,-0.2235,-0.289,-0.1825,-0.2375,-0.2045,0.4745,0.058
-0.2025,0.88,1.0825,-0.339,-0.642,0.9815,-0.0995,-0.1895,-0.2225,-0.287,-0.182,-0.2355,-0.2045,0.474,0.056
-0.199,0.881,1.0795,-0.341,-0.6385,0.98,-0.096,-0.1875,-0.2235,-0.2865,-0.1825,-0.2365,-0.2045,0.4735,0.0515
-0.201,0.881,1.082,-0.34,-0.641,0.9815,-0.0975,-0.1905,-0.2255,-0.289,-0.185,-0.238,-0.2035,0.482,0.052
-0.2045,0.873,1.078,-0.334,-0.6405,0.9755,-0.0955,-0.1885,-0.222,-0.286,-0.184,-0.235,-0.203,0.4865,0.06
-0.209,0.878,1.087,-0.3345,-0.6475,0.9825,-0.0945,-0.1865,-0.22,-0.284,-0.181,-0.2325,-0.2055,0.4865,0.0595
-0.216,0.871,1.087,-0.3275,-0.651,0.979,-0.097,-0.1895,-0.2245,-0.2885,-0.185,-0.237,-0.2065,0.4715,0.047
-0.217,0.858,1.0755,-0.3205,-0.6455,0.9665,-0.0965,-0.19,-0.224,-0.2875,-0.1835,-0.237,-0.2065,0.461,0.045
-0.21,0.864,1.074,-0.327,-0.6415,0.969,-0.0945,-0.189,-0.2195,-0.2855,-0.1815,-0.235,-0.2055,0.467,0.0505
-0.2085,0.8615,1.0695,-0.3265,-0.6385,0.9655,-0.0935,-0.1885,-0.221,-0.287,-0.1825,-0.236,-0.2065,0.467,0.0615
-0.21,0.858,1.0675,-0.324,-0.638,0.963,-0.0975,-0.1895,-0.222,-0.2895,-0.1845,-0.2355,-0.204,0.465,0.0705
-0.213,0.8595,1.0725,-0.323,-0.642,0.966,-0.1,-0.192,-0.224,-0.2935,-0.186,-0.2375,-0.2035,0.4605,0.062
-0.2115,0.8665,1.078,-0.327,-0.6445,0.972,-0.0985,-0.1905,-0.223,-0.292,-0.1845,-0.238,-0.207,0.4525,0.0485
-0.2075,0.871,1.0785,-0.3315,-0.6425,0.9745,-0.0985,-0.188,-0.221,-0.289,-0.1845,-0.2375,-0.2055,0.4435,0.0405
-0.204,0.8805,1.0845,-0.3385,-0.6435,0.9825,-0.098,-0.187,-0.223,-0.2915,-0.1815,-0.236,-0.2045,0.456,0.0405
-0.2015,0.88,1.0815,-0.3395,-0.641,0.981,-0.098,-0.1855,-0.2235,-0.2935,-0.182,-0.2365,-0.204,0.472,0.0545
-0.207,0.8655,1.072,-0.3295,-0.639,0.9685,-0.1015,-0.19,-0.2265,-0.2955,-0.1855,-0.2395,-0.205,0.4685,0.065
-0.2045,0.8765,1.081,-0.336,-0.642,0.9785,-0.106,-0.196,-0.227,-0.2965,-0.1865,-0.2385,-0.2035,0.475,0.062
-0.1905,0.883,1.0735,-0.3465,-0.631,0.978,-0.103,-0.191,-0.2235,-0.293,-0.1825,-0.235,-0.2015,0.4765,0.063
-0.1895,0.883,1.0725,-0.347,-0.6305,0.978,-0.1,-0.189,-0.2195,-0.291,-0.1795,-0.233,-0.2045,0.473,0.061
-0.1935,0.8835,1.077,-0.345,-0.635,0.98,-0.1025,-0.192,-0.219,-0.2925,-0.1815,-0.2325,-0.2045,0.4825,0.0665
-0.196,0.873,1.069,-0.3385,-0.632,0.971,-0.1005,-0.188,-0.221,-0.294,-0.1835,-0.2355,-0.204,0.4755,0.073
-0.208,0.861,1.0685,-0.3265,-0.638,0.965,-0.1035,-0.1915,-0.225,-0.298,-0.189,-0.2425,-0.2075,0.4685,0.0675
-0.212,0.8565,1.068,-0.322,-0.6395,0.962,-0.1075,-0.1955,-0.2265,-0.2995,-0.1925,-0.2455,-0.207,0.477,0.0705
-0.2075,0.8615,1.069,-0.327,-0.638,0.9655,-0.1015,-0.1885,-0.2195,-0.293,-0.1855,-0.2375,-0.2065,0.4725,0.065
-0.205,0.857,1.0615,-0.326,-0.633,0.959,-0.0995,-0.188,-0.22,-0.292,-0.1855,-0.2375,-0.208,0.4685,0.0675
-0.2055,0.8625,1.0675,-0.3285,-0.636,0.965,-0.1,-0.1885,-0.2215,-0.2925,-0.1875,-0.2395,-0.2085,0.472,0.0645
-0.2025,0.87,1.072,-0.334,-0.6365,0.971,-0.101,-0.1875,-0.222,-0.2905,-0.185,-0.2355,-0.2075,0.4715,0.053
-0.203,0.8605,1.0635,-0.329,-0.633,0.962,-0.101,-0.1865,-0.223,-0.291,-0.185,-0.2365,-0.207,0.4685,0.063
-0.209,0.856,1.0645,-0.3235,-0.636,0.96,-0.1015,-0.1885,-0.223,-0.2915,-0.1845,-0.2375,-0.2075,0.4705,0.066
-0.2075,0.863,1.07,-0.3275,-0.638,0.9665,-0.1045,-0.193,-0.2255,-0.2925,-0.187,-0.2395,-0.207,0.472,0.063
-0.207,0.8695,1.0765,-0.331,-0.6415,0.973,-0.1025,-0.1925,-0.223,-0.292,-0.1865,-0.2375,-0.2055,0.47,0.0615
-0.2085,0.8715,1.0805,-0.3315,-0.644,0.976,-0.1005,-0.1905,-0.2225,-0.292,-0.1855,-0.236,-0.206,0.4765,0.0595
-0.209,0.864,1.073,-0.3275,-0.6405,0.9685,-0.102,-0.1875,-0.222,-0.29,-0.185,-0.236,-0.206,0.4625,0.0565
-0.2095,0.861,1.0705,-0.326,-0.639,0.9655,-0.104,-0.19,-0.224,-0.2915,-0.186,-0.2355,-0.2045,0.4605,0.0565
-0.2095,0.8685,1.0785,-0.329,-0.6435,0.9735,-0.107,-0.1945,-0.232,-0.298,-0.1925,-0.243,-0.205,0.462,0.0555
-0.2135,0.861,1.0745,-0.3235,-0.6435,0.9675,-0.108,-0.1945,-0.2295,-0.298,-0.192,-0.243,-0.2045,0.458,0.0555
-0.2205,0.8595,1.08,-0.319,-0.65,0.9695,-0.106,-0.195,-0.23,-0.2985,-0.1895,-0.2415,-0.205,0.4765,0.06
-0.2185,0.863,1.0815,-0.322,-0.6495,0.972,-0.1075,-0.1935,-0.2315,-0.2975,-0.189,-0.2395,-0.2035,0.4735,0.0575
-0.2165,0.859,1.0755,-0.321,-0.6455,0.967,-0.1065,-0.1915,-0.228,-0.295,-0.1865,-0.2355,-0.2015,0.466,0.0585
-0.214,0.867,1.0805,-0.3265,-0.6465,0.9735,-0.1055,-0.1925,-0.228,-0.294,-0.1845,-0.235,-0.202,0.4755,0.059
-0.21,0.869,1.079,-0.3295,-0.644,0.974,-0.106,-0.191,-0.226,-0.292,-0.1825,-0.2335,-0.2015,0.48,0.0595
-0.2105,0.8665,1.0775,-0.328,-0.6435,0.972,-0.102,-0.1875,-0.223,-0.289,-0.181,-0.2335,-0.2035,0.4745,0.0605
-0.214,0.8725,1.0865,-0.3295,-0.6495,0.9795,-0.1025,-0.1875,-0.2235,-0.289,-0.1825,-0.233,-0.2055,0.478,0.058
-0.2185,0.8715,1.09,-0.3265,-0.654,0.981,-0.1055,-0.19,-0.23,-0.2935,-0.183,-0.233,-0.204,0.4845,0.064
-0.2135,0.874,1.088,-0.3305,-0.65,0.981,-0.104,-0.1875,-0.228,-0.2935,-0.1825,-0.2335,-0.204,0.4825,0.061
-0.2095,0.868,1.0775,-0.329,-0.643,0.9725,-0.1025,-0.185,-0.224,-0.2895,-0.1815,-0.2335,-0.2045,0.4705,0.0515
-0.212,0.859,1.071,-0.3235,-0.641,0.965,-0.102,-0.187,-0.2255,-0.2885,-0.18,-0.2335,-0.206,0.4625,0.053
-0.216,0.8585,1.0745,-0.3215,-0.645,0.9665,-0.1055,-0.1915,-0.227,-0.29,-0.184,-0.237,-0.2065,0.466,0.054
-0.219,0.86,1.0795,-0.3205,-0.6485,0.9695,-0.1055,-0.192,-0.2295,-0.2925,-0.186,-0.2395,-0.2085,0.463,0.05
-0.2195,0.8625,1.0825,-0.3215,-0.6505,0.9725,-0.104,-0.1895,-0.228,-0.2925,-0.1845,-0.238,-0.2085,0.468,0.053
-0.21,0.866,1.0765,-0.328,-0.6425,0.971,-0.107,-0.1915,-0.231,-0.297,-0.1865,-0.2405,-0.2065,0.4685,0.06
-0.201,0.8705,1.071,-0.335,-0.6355,0.971,-0.1055,-0.1905,-0.229,-0.2955,-0.185,-0.2375,-0.204,0.465,0.0615
-0.202,0.864,1.066,-0.331,-0.6335,0.965,-0.1045,-0.188,-0.226,-0.2925,-0.183,-0.234,-0.2025,0.46,0.0605
-0.1975,0.879,1.0765,-0.3405,-0.6365,0.978,-0.104,-0.187,-0.225,-0.2925,-0.1815,-0.234,-0.206,0.468,0.0615
-0.196,0.884,1.0805,-0.344,-0.638,0.9825,-0.1,-0.1835,-0.22,-0.2885,-0.177,-0.2295,-0.206,0.4805,0.0665
-0.205,0.873,1.078,-0.334,-0.641,0.9755,-0.101,-0.184,-0.22,-0.29,-0.178,-0.2295,-0.2055,0.476,0.069
-0.2085,0.8825,1.0915,-0.337,-0.6495,0.987,-0.102,-0.187,-0.2235,-0.2945,-0.1825,-0.233,-0.2065,0.4785,0.062
-0.2015,0.8925,1.094,-0.3455,-0.647,0.993,-0.1025,-0.1865,-0.225,-0.295,-0.1835,-0.2325,-0.2055,0.489,0.0635
-0.2055,0.887,1.0925,-0.341,-0.6485,0.99,-0.106,-0.1895,-0.226,-0.2975,-0.186,-0.2345,-0.2065,0.484,0.06
-0.218,0.865,1.083,-0.3235,-0.65,0.974,-0.108,-0.194,-0.2295,-0.3025,-0.189,-0.2395,-0.207,0.468,0.0515
-0.219,0.863,1.082,-0.322,-0.65,0.9725,-0.107,-0.191,-0.229,-0.2995,-0.1885,-0.2375,-0.2065,0.473,0.053
-0.2135,0.8735,1.087,-0.33,-0.65,0.9805,-0.104,-0.1885,-0.226,-0.2975,-0.1855,-0.2365,-0.2065,0.472,0.0545
-0.213,0.8735,1.0865,-0.3305,-0.6495,0.98,-0.106,-0.1925,-0.2275,-0.299,-0.1875,-0.239,-0.206,0.468,0.058
-0.224,0.864,1.0875,-0.32,-0.6555,0.976,-0.1095,-0.1945,-0.231,-0.301,-0.191,-0.2425,-0.2055,0.472,0.0545
-0.2265,0.858,1.084,-0.316,-0.655,0.971,-0.107,-0.193,-0.2275,-0.2995,-0.1875,-0.239,-0.207,0.463,0.049
-0.219,0.862,1.081,-0.321,-0.6495,0.9715,-0.106,-0.1935,-0.225,-0.295,-0.1865,-0.2365,-0.207,0.464,0.0555
-0.2165,0.8605,1.077,-0.322,-0.6465,0.9685,-0.104,-0.191,-0.2235,-0.294,-0.185,-0.2375,-0.207,0.4655,0.0585
-0.2155,0.861,1.0765,-0.3225,-0.6455,0.9685,-0.104,-0.1895,-0.2245,-0.2925,-0.184,-0.2365,-0.209,0.461,0.0515
-0.2095,0.864,1.0735,-0.327,-0.641,0.9685,-0.1035,-0.191,-0.224,-0.2915,-0.185,-0.237,-0.2095,0.4645,0.0575
-0.2085,0.864,1.0725,-0.328,-0.64,0.9685,-0.1025,-0.1905,-0.2235,-0.2915,-0.184,-0.236,-0.2095,0.4705,0.0695
-0.2105,0.87,1.081,-0.3295,-0.645,0.9755,-0.1045,-0.1915,-0.225,-0.2915,-0.184,-0.235,-0.208,0.4785,0.0715
-0.2055,0.8775,1.0835,-0.336,-0.644,0.9805,-0.1045,-0.192,-0.2265,-0.291,-0.1835,-0.235,-0.2065,0.481,0.0705
-0.207,0.877,1.084,-0.335,-0.645,0.9805,-0.105,-0.191,-0.227,-0.291,-0.1825,-0.235,-0.2075,0.483,0.069
-0.2075,0.878,1.0855,-0.3355,-0.646,0.982,-0.104,-0.19,-0.224,-0.291,-0.1825,-0.236,-0.2105,0.4855,0.0645
-0.206,0.881,1.087,-0.3375,-0.646,0.984,-0.104,-0.1885,-0.2225,-0.29,-0.1835,-0.236,-0.211,0.4935,0.0635
-0.204,0.878,1.082,-0.337,-0.6425,0.98,-0.104,-0.187,-0.2235,-0.2895,-0.183,-0.2345,-0.208,0.4845,0.068
-0.2055,0.881,1.0865,-0.3375,-0.6455,0.9835,-0.103,-0.1885,-0.2245,-0.292,-0.1825,-0.236,-0.208,0.478,0.061
-0.2095,0.8845,1.0935,-0.3375,-0.651,0.989,-0.106,-0.1895,-0.2255,-0.2945,-0.185,-0.237,-0.2085,0.4825,0.064
-0.2095,0.883,1.092,-0.3365,-0.65,0.9875,-0.1065,-0.1885,-0.228,-0.2945,-0.185,-0.237,-0.208,0.481,0.0645
-0.2115,0.8855,1.097,-0.337,-0.654,0.991,-0.1035,-0.1895,-0.224,-0.291,-0.181,-0.236,-0.2095,0.487,0.053
-0.2085,0.887,1.0955,-0.3395,-0.6515,0.9915,-0.103,-0.189,-0.2225,-0.2885,-0.181,-0.235,-0.2115,0.485,0.056
-0.2035,0.884,1.0875,-0.3405,-0.645,0.986,-0.103,-0.1885,-0.224,-0.29,-0.1815,-0.236,-0.2115,0.4765,0.0555
-0.2,0.874,1.074,-0.337,-0.6365,0.9745,-0.1035,-0.188,-0.2215,-0.288,-0.1795,-0.2335,-0.2075,0.4645,0.057
-0.2015,0.875,1.077,-0.337,-0.6385,0.976,-0.103,-0.1885,-0.2215,-0.2855,-0.1775,-0.231,-0.2085,0.4735,0.068
-0.196,0.8865,1.0825,-0.345,-0.639,0.9845,-0.103,-0.189,-0.2195,-0.286,-0.1765,-0.2305,-0.209,0.479,0.068
-0.194,0.8845,1.0785,-0.345,-0.6355,0.9815,-0.103,-0.188,-0.2205,-0.286,-0.177,-0.2315,-0.209,0.4615,0.057
-0.2005,0.8835,1.084,-0.342,-0.6415,0.984,-0.101,-0.188,-0.221,-0.2855,-0.1795,-0.2335,-0.21,0.46,0.046
-0.202,0.884,1.0855,-0.341,-0.643,0.9845,-0.1,-0.1865,-0.219,-0.2855,-0.178,-0.233,-0.21,0.4655,0.045
-0.1995,0.88,1.0795,-0.3405,-0.639,0.9795,-0.1015,-0.1875,-0.2195,-0.286,-0.1785,-0.2345,-0.2105,0.4625,0.048
-0.196,0.883,1.0795,-0.3435,-0.637,0.981,-0.1005,-0.1895,-0.2205,-0.2865,-0.181,-0.235,-0.21,0.457,0.0495
-0.201,0.878,1.079,-0.3385,-0.6395,0.9785,-0.101,-0.1875,-0.222,-0.289,-0.181,-0.2365,-0.211,0.4545,0.051
-0.2005,0.875,1.0755,-0.3375,-0.6375,0.9755,-0.103,-0.186,-0.221,-0.289,-0.1815,-0.2365,-0.209,0.4525,0.0455
-0.1965,0.8715,1.068,-0.3375,-0.632,0.97,-0.102,-0.1865,-0.2195,-0.289,-0.179,-0.2335,-0.208,0.452,0.045
-0.195,0.8705,1.066,-0.3375,-0.63,0.968,-0.104,-0.1875,-0.2225,-0.2915,-0.1835,-0.237,-0.2075,0.4525,0.048
-0.1955,0.8755,1.071,-0.34,-0.6325,0.973,-0.1045,-0.188,-0.224,-0.2915,-0.1845,-0.239,-0.2075,0.45,0.038
-0.197,0.8765,1.0735,-0.3395,-0.635,0.9755,-0.104,-0.1895,-0.2235,-0.292,-0.183,-0.2385,-0.209,0.4495,0.049
-0.1875,0.8915,1.079,-0.3515,-0.633,0.985,-0.1035,-0.19,-0.2235,-0.2915,-0.1835,-0.237,-0.209,0.462,0.0635
-0.184,0.9065,1.0905,-0.3615,-0.6365,0.9985,-0.103,-0.192,-0.2225,-0.2885,-0.182,-0.233,-0.208,0.486,0.0725
-0.1845,0.9095,1.094,-0.3625,-0.6385,1.0015,-0.103,-0.1915,-0.223,-0.288,-0.1815,-0.231,-0.206,0.503,0.078
-0.188,0.891,1.0785,-0.3515,-0.6325,0.985,-0.103,-0.1905,-0.224,-0.287,-0.18,-0.232,-0.2065,0.49,0.0675
-0.1925,0.881,1.0735,-0.344,-0.6325,0.9775,-0.1015,-0.1895,-0.2225,-0.285,-0.179,-0.2325,-0.208,0.4725,0.0655
-0.1975,0.871,1.0685,-0.3365,-0.6325,0.9695,-0.1005,-0.187,-0.22,-0.286,-0.179,-0.2345,-0.2105,0.4675,0.061
-0.204,0.864,1.068,-0.33,-0.6355,0.9665,-0.102,-0.1895,-0.2225,-0.288,-0.1825,-0.235,-0.21,0.466,0.0625
-0.2,0.8775,1.0775,-0.339,-0.6385,0.9775,-0.1025,-0.1895,-0.2235,-0.2885,-0.183,-0.236,-0.2085,0.4615,0.0605
-0.206,0.8845,1.0905,-0.3395,-0.6475,0.9875,-0.1005,-0.187,-0.2215,-0.289,-0.182,-0.237,-0.2105,0.4545,0.0555
-0.2105,0.8855,1.0955,-0.3375,-0.6525,0.991,-0.097,-0.186,-0.2195,-0.284,-0.18,-0.233,-0.212,0.467,0.0645
-0.205,0.8745,1.0795,-0.335,-0.6415,0.977,-0.0975,-0.1845,-0.22,-0.283,-0.1795,-0.232,-0.2105,0.4675,0.0685
-0.2075,0.8795,1.0875,-0.336,-0.647,0.9835,-0.103,-0.188,-0.224,-0.2875,-0.183,-0.2375,-0.2105,0.462,0.0635
-0.2045,0.8855,1.09,-0.3405,-0.647,0.9875,-0.1005,-0.187,-0.224,-0.286,-0.18,-0.237,-0.2125,0.471,0.062
-0.192,0.8795,1.071,-0.3435,-0.631,0.975,-0.093,-0.18,-0.2185,-0.2815,-0.176,-0.2315,-0.2105,0.4585,0.0625
-0.186,0.883,1.0685,-0.3485,-0.6265,0.9755,-0.092,-0.1785,-0.215,-0.278,-0.1735,-0.23,-0.209,0.4465,0.0535
-0.185,0.883,1.068,-0.349,-0.626,0.9755,-0.095,-0.1825,-0.218,-0.2815,-0.176,-0.232,-0.206,0.4435,0.0495
-0.1855,0.8865,1.0715,-0.3505,-0.628,0.979,-0.099,-0.1875,-0.223,-0.287,-0.182,-0.236,-0.205,0.4405,0.0445
-0.1845,0.8975,1.082,-0.3565,-0.6325,0.9895,-0.1015,-0.188,-0.2225,-0.2875,-0.183,-0.236,-0.2055,0.4525,0.045
-0.187,0.903,1.09,-0.358,-0.638,0.9965,-0.1,-0.188,-0.2235,-0.289,-0.1835,-0.2365,-0.2055,0.457,0.0455
-0.1975,0.892,1.089,-0.3475,-0.6425,0.9905,-0.099,-0.1865,-0.2225,-0.2885,-0.183,-0.2385,-0.2085,0.457,0.046
-0.197,0.882,1.079,-0.3425,-0.6375,0.9805,-0.0975,-0.186,-0.222,-0.2875,-0.182,-0.237,-0.2075,0.4565,0.0505
-0.195,0.8835,1.079,-0.3445,-0.6365,0.9815,-0.098,-0.1845,-0.2235,-0.286,-0.18,-0.2355,-0.2065,0.4655,0.058
-0.1965,0.8895,1.0865,-0.3465,-0.641,0.988,-0.1005,-0.1865,-0.222,-0.2855,-0.1805,-0.2345,-0.206,0.476,0.067
-0.1955,0.889,1.085,-0.3465,-0.6395,0.987,-0.1035,-0.188,-0.2215,-0.286,-0.181,-0.233,-0.2045,0.4665,0.057
-0.196,0.8895,1.0855,-0.3465,-0.64,0.9875,-0.102,-0.188,-0.224,-0.2895,-0.183,-0.2375,-0.208,0.4615,0.0495
-0.196,0.8935,1.0895,-0.3485,-0.6425,0.9915,-0.1005,-0.19,-0.2265,-0.2905,-0.184,-0.2385,-0.2105,0.47,0.0505
-0.1935,0.8895,1.083,-0.348,-0.638,0.9865,-0.1005,-0.188,-0.225,-0.2875,-0.18,-0.2365,-0.209,0.4815,0.064
-0.1885,0.894,1.082,-0.353,-0.6345,0.988,-0.1,-0.187,-0.225,-0.2865,-0.18,-0.236,-0.208,0.481,0.0705
-0.1795,0.9015,1.081,-0.361,-0.6295,0.991,-0.1015,-0.187,-0.224,-0.2855,-0.1795,-0.233,-0.2065,0.479,0.0655
-0.1815,0.8995,1.081,-0.359,-0.631,0.9905,-0.097,-0.1855,-0.222,-0.284,-0.176,-0.231,-0.2055,0.4775,0.069
-0.1845,0.8945,1.0785,-0.355,-0.631,0.9865,-0.0945,-0.185,-0.2185,-0.284,-0.176,-0.2285,-0.2065,0.477,0.0705
-0.1785,0.8985,1.077,-0.36,-0.6275,0.988,-0.0965,-0.185,-0.2195,-0.2845,-0.1775,-0.2295,-0.206,0.48,0.0685
-0.1865,0.8985,1.085,-0.356,-0.6355,0.992,-0.0985,-0.1885,-0.2235,-0.2865,-0.179,-0.232,-0.208,0.47,0.0645
-0.193,0.893,1.086,-0.35,-0.639,0.989,-0.099,-0.1895,-0.2235,-0.287,-0.1795,-0.233,-0.208,0.4705,0.068
-0.1895,0.8995,1.089,-0.355,-0.639,0.9945,-0.099,-0.187,-0.222,-0.285,-0.177,-0.232,-0.2075,0.487,0.0755
-0.1815,0.906,1.088,-0.3625,-0.634,0.997,-0.0975,-0.187,-0.219,-0.2825,-0.173,-0.227,-0.2065,0.49,0.0785
-0.1785,0.907,1.0855,-0.3645,-0.6315,0.996,-0.0955,-0.1865,-0.218,-0.28,-0.1715,-0.2265,-0.206,0.489,0.076
-0.1815,0.906,1.087,-0.3625,-0.6335,0.9965,-0.099,-0.1875,-0.2195,-0.2825,-0.173,-0.23,-0.2075,0.4905,0.071
-0.1835,0.911,1.0945,-0.364,-0.6385,1.003,-0.0975,-0.187,-0.22,-0.2825,-0.1715,-0.2285,-0.2075,0.492,0.071
-0.184,0.913,1.097,-0.3645,-0.64,1.005,-0.094,-0.1835,-0.217,-0.2815,-0.1675,-0.2245,-0.208,0.493,0.072
-0.1825,0.91,1.0925,-0.364,-0.637,1.001,-0.096,-0.1845,-0.217,-0.2805,-0.168,-0.226,-0.2085,0.486,0.0675
-0.1885,0.9035,1.092,-0.3575,-0.6395,0.998,-0.0995,-0.187,-0.221,-0.2825,-0.1715,-0.23,-0.2085,0.4865,0.0665
-0.1905,0.9015,1.092,-0.3555,-0.6405,0.997,-0.0985,-0.1865,-0.22,-0.2815,-0.1705,-0.2285,-0.2075,0.4795,0.0625
-0.185,0.914,1.099,-0.3645,-0.6415,1.0065,-0.0995,-0.1875,-0.22,-0.2795,-0.17,-0.227,-0.206,0.474,0.0625
-0.184,0.916,1.1,-0.366,-0.6415,1.008,-0.0995,-0.186,-0.221,-0.2795,-0.1715,-0.229,-0.206,0.4765,0.0655
-0.1885,0.9145,1.103,-0.363,-0.645,1.0085,-0.0975,-0.185,-0.2205,-0.28,-0.1705,-0.229,-0.2085,0.4775,0.0585
-0.1845,0.915,1.0995,-0.3655,-0.6415,1.007,-0.0995,-0.1855,-0.2215,-0.282,-0.1715,-0.23,-0.2075,0.4785,0.0485
-0.176,0.913,1.089,-0.3685,-0.632,1.001,-0.0985,-0.185,-0.2215,-0.2815,-0.171,-0.23,-0.206,0.476,0.0415
-0.174,0.9105,1.0845,-0.368,-0.629,0.9975,-0.0955,-0.1835,-0.2195,-0.279,-0.1675,-0.226,-0.2055,0.4775,0.05
-0.174,0.904,1.078,-0.365,-0.6255,0.991,-0.0905,-0.18,-0.2185,-0.2745,-0.164,-0.222,-0.2045,0.476,0.058
-0.1785,0.902,1.0805,-0.362,-0.629,0.9915,-0.091,-0.1795,-0.2175,-0.272,-0.1625,-0.22,-0.207,0.4755,0.0595
-0.1835,0.901,1.084,-0.3585,-0.6335,0.9925,-0.0905,-0.1815,-0.2185,-0.2745,-0.165,-0.224,-0.209,0.464,0.0565
-0.1855,0.9015,1.087,-0.358,-0.636,0.9945,-0.089,-0.183,-0.217,-0.275,-0.1655,-0.2255,-0.2095,0.4635,0.058
-0.187,0.9005,1.0875,-0.3565,-0.637,0.994,-0.0905,-0.1815,-0.217,-0.276,-0.1665,-0.224,-0.2075,0.472,0.066
-0.18,0.9045,1.0845,-0.362,-0.632,0.9945,-0.091,-0.181,-0.219,-0.2755,-0.166,-0.2225,-0.206,0.477,0.069
-0.1725,0.922,1.0945,-0.3745,-0.633,1.008,-0.094,-0.181,-0.218,-0.2755,-0.163,-0.2215,-0.206,0.4875,0.0735
-0.176,0.9255,1.1015,-0.3745,-0.6385,1.0135,-0.0955,-0.183,-0.22,-0.2775,-0.1655,-0.2235,-0.2065,0.4855,0.07
-0.1835,0.912,1.095,-0.3645,-0.6385,1.0035,-0.0965,-0.1855,-0.219,-0.2785,-0.1665,-0.2235,-0.206,0.483,0.0705
-0.1785,0.9155,1.094,-0.3685,-0.6355,1.0045,-0.099,-0.1865,-0.22,-0.279,-0.166,-0.2235,-0.204,0.49,0.0725
-0.176,0.9215,1.097,-0.373,-0.636,1.009,-0.0985,-0.188,-0.2225,-0.2795,-0.168,-0.227,-0.2065,0.4905,0.0645
-0.1805,0.9175,1.0975,-0.3685,-0.6385,1.0075,-0.098,-0.186,-0.2205,-0.278,-0.166,-0.2255,-0.206,0.486,0.064
-0.1825,0.908,1.0905,-0.363,-0.636,0.9995,-0.097,-0.1845,-0.2205,-0.2765,-0.1655,-0.224,-0.206,0.479,0.0635
-0.1875,0.903,1.0905,-0.358,-0.638,0.9965,-0.097,-0.1845,-0.2205,-0.2765,-0.167,-0.2275,-0.2095,0.467,0.059
-0.1855,0.912,1.0975,-0.363,-0.641,1.0045,-0.0975,-0.184,-0.2205,-0.2755,-0.166,-0.226,-0.2075,0.4675,0.056
-0.1855,0.905,1.091,-0.3595,-0.6375,0.998,-0.096,-0.1835,-0.222,-0.276,-0.168,-0.228,-0.2065,0.4775,0.059
-0.188,0.8955,1.0835,-0.3535,-0.6355,0.9895,-0.0945,-0.181,-0.2215,-0.2755,-0.1675,-0.2285,-0.209,0.4735,0.0575
-0.1835,0.8945,1.078,-0.3555,-0.6305,0.9865,-0.0935,-0.18,-0.219,-0.2745,-0.164,-0.225,-0.2075,0.4625,0.053
-0.179,0.905,1.084,-0.363,-0.631,0.9945,-0.0955,-0.182,-0.219,-0.2745,-0.166,-0.228,-0.209,0.464,0.048
-0.1785,0.9035,1.082,-0.3625,-0.6295,0.9925,-0.0965,-0.1825,-0.2205,-0.2755,-0.1665,-0.2285,-0.209,0.4535,0.048
-0.172,0.9,1.072,-0.364,-0.6215,0.986,-0.093,-0.1795,-0.218,-0.2765,-0.166,-0.2285,-0.2075,0.4435,0.054
-0.165,0.9095,1.075,-0.372,-0.6195,0.992,-0.0905,-0.1755,-0.213,-0.274,-0.164,-0.226,-0.2085,0.4525,0.058
-0.164,0.9075,1.0715,-0.372,-0.617,0.9895,-0.0885,-0.175,-0.2095,-0.272,-0.161,-0.222,-0.2065,0.462,0.0695
-0.164,0.9105,1.0745,-0.3735,-0.6185,0.9925,-0.09,-0.1755,-0.2095,-0.272,-0.163,-0.223,-0.208,0.4765,0.0705
-0.166,0.9055,1.072,-0.3695,-0.6185,0.9885,-0.091,-0.1755,-0.2105,-0.272,-0.164,-0.225,-0.2085,0.4755,0.069
-0.1675,0.9135,1.081,-0.373,-0.624,0.9975,-0.0925,-0.1785,-0.215,-0.275,-0.167,-0.2285,-0.21,0.4705,0.063
-0.1755,0.9105,1.086,-0.3675,-0.6305,0.998,-0.0945,-0.18,-0.218,-0.2785,-0.171,-0.231,-0.2105,0.4655,0.054
-0.1785,0.8965,1.075,-0.359,-0.626,0.986,-0.0945,-0.1795,-0.217,-0.2795,-0.171,-0.2335,-0.211,0.455,0.054
-0.1765,0.907,1.0835,-0.3655,-0.6295,0.9955,-0.094,-0.1795,-0.2185,-0.28,-0.171,-0.2335,-0.212,0.461,0.0505
-0.1775,0.901,1.079,-0.362,-0.6275,0.99,-0.092,-0.178,-0.2185,-0.28,-0.1695,-0.2315,-0.2105,0.46,0.047
-0.172,0.8955,1.068,-0.362,-0.6195,0.982,-0.089,-0.1715,-0.2165,-0.2775,-0.167,-0.2275,-0.2075,0.457,0.0475
-0.1705,0.903,1.0735,-0.3665,-0.6215,0.988,-0.093,-0.178,-0.219,-0.278,-0.168,-0.228,-0.206,0.463,0.0485
-0.1825,0.9,1.0825,-0.359,-0.632,0.991,-0.1055,-0.192,-0.2265,-0.286,-0.176,-0.236,-0.2075,0.4695,0.051
-0.189,0.895,1.084,-0.353,-0.636,0.9895,-0.105,-0.1895,-0.228,-0.2865,-0.177,-0.236,-0.206,0.478,0.0585
-0.1845,0.902,1.086,-0.359,-0.6345,0.994,-0.098,-0.1845,-0.2245,-0.2855,-0.175,-0.2345,-0.209,0.48,0.0595
-0.178,0.904,1.082,-0.363,-0.6295,0.993,-0.098,-0.184,-0.2255,-0.286,-0.175,-0.2345,-0.2085,0.4715,0.052
-0.174,0.9015,1.0755,-0.364,-0.624,0.9885,-0.0975,-0.182,-0.224,-0.283,-0.1735,-0.2325,-0.206,0.457,0.0405
-0.1775,0.9015,1.0795,-0.362,-0.628,0.9905,-0.0955,-0.18,-0.2215,-0.282,-0.173,-0.232,-0.2075,0.46,0.047
-0.182,0.894,1.0755,-0.356,-0.6285,0.9845,-0.095,-0.1795,-0.222,-0.283,-0.171,-0.23,-0.207,0.4595,0.054
-0.1815,0.898,1.0795,-0.3585,-0.63,0.989,-0.0955,-0.179,-0.222,-0.281,-0.1715,-0.228,-0.2065,0.4585,0.05
-0.183,0.9065,1.09,-0.362,-0.636,0.9985,-0.094,-0.1785,-0.22,-0.278,-0.1675,-0.226,-0.2055,0.4665,0.054
-0.181,0.906,1.087,-0.363,-0.6335,0.9965,-0.093,-0.176,-0.218,-0.2775,-0.1655,-0.2245,-0.205,0.4605,0.0525
-0.1765,0.902,1.079,-0.3625,-0.6275,0.9905,-0.0945,-0.1775,-0.221,-0.279,-0.1675,-0.2265,-0.2045,0.46,0.0575
-0.1815,0.898,1.079,-0.358,-0.63,0.9885,-0.0965,-0.178,-0.225,-0.282,-0.1695,-0.2295,-0.205,0.4675,0.056
-0.1855,0.897,1.0825,-0.3555,-0.6335,0.9895,-0.096,-0.179,-0.224,-0.2805,-0.168,-0.2275,-0.207,0.471,0.0505
-0.1815,0.906,1.0875,-0.362,-0.634,0.9965,-0.098,-0.181,-0.2225,-0.2795,-0.1675,-0.227,-0.2075,0.4765,0.056
-0.177,0.9115,1.0885,-0.3675,-0.632,1.0,-0.0985,-0.1785,-0.224,-0.278,-0.1675,-0.226,-0.2075,0.483,0.067
-0.1775,0.9075,1.085,-0.365,-0.631,0.996,-0.097,-0.179,-0.2225,-0.2765,-0.164,-0.223,-0.2055,0.4875,0.0735
-0.1795,0.916,1.0955,-0.368,-0.637,1.006,-0.0985,-0.177,-0.2195,-0.2755,-0.164,-0.2235,-0.2065,0.495,0.0645
-0.1815,0.9145,1.096,-0.367,-0.638,1.005,-0.099,-0.1775,-0.2195,-0.274,-0.1635,-0.224,-0.2055,0.494,0.0585
-0.18,0.903,1.083,-0.362,-0.631,0.993,-0.0995,-0.178,-0.2185,-0.2735,-0.163,-0.222,-0.2005,0.4815,0.052
-0.185,0.9015,1.087,-0.3585,-0.635,0.994,-0.0995,-0.178,-0.2195,-0.276,-0.166,-0.2245,-0.203,0.48,0.047
-0.1865,0.914,1.1005,-0.364,-0.643,1.0075,-0.0955,-0.176,-0.218,-0.277,-0.165,-0.226,-0.207,0.486,0.0485
-0.173,0.9225,1.0955,-0.3745,-0.634,1.009,-0.088,-0.17,-0.213,-0.2715,-0.1595,-0.2205,-0.2045,0.4815,0.044
-0.178,0.927,1.105,-0.3745,-0.641,1.016,-0.0885,-0.1735,-0.2175,-0.2745,-0.1635,-0.224,-0.2055,0.4875,0.0375
-0.1865,0.9265,1.113,-0.37,-0.6495,1.02,-0.0875,-0.1745,-0.2185,-0.2765,-0.166,-0.2285,-0.208,0.4895,0.037
-0.177,0.92,1.097,-0.3715,-0.6365,1.0085,-0.081,-0.1685,-0.2105,-0.2685,-0.1585,-0.2225,-0.2085,0.4915,0.046
-0.1735,0.9265,1.1,-0.3765,-0.636,1.013,-0.0785,-0.1665,-0.2085,-0.265,-0.155,-0.219,-0.207,0.504,0.051
-0.174,0.933,1.1075,-0.3795,-0.6405,1.0205,-0.0765,-0.1645,-0.206,-0.26,-0.1515,-0.2195,-0.2075,0.4965,0.0345
-0.1755,0.9345,1.1095,-0.3795,-0.642,1.022,-0.075,-0.1625,-0.2005,-0.2565,-0.152,-0.2205,-0.2095,0.5005,0.026
-0.176,0.9345,1.1105,-0.3795,-0.643,1.0225,-0.0715,-0.1645,-0.2005,-0.258,-0.154,-0.2205,-0.2105,0.503,0.0325
-0.1745,0.9305,1.105,-0.378,-0.639,1.0175,-0.0675,-0.161,-0.199,-0.256,-0.151,-0.2155,-0.2095,0.4955,0.029
-0.1745,0.923,1.0975,-0.374,-0.6355,1.01,-0.067,-0.159,-0.198,-0.2575,-0.151,-0.2145,-0.209,0.494,0.032
-0.178,0.9365,1.1145,-0.3795,-0.646,1.0255,-0.069,-0.163,-0.203,-0.2605,-0.153,-0.218,-0.2115,0.51,0.0375
-0.177,0.947,1.124,-0.385,-0.65,1.0355,-0.0705,-0.1635,-0.204,-0.2615,-0.154,-0.218,-0.2105,0.5175,0.04
-0.177,0.9455,1.1225,-0.3845,-0.649,1.034,-0.071,-0.165,-0.203,-0.262,-0.1535,-0.218,-0.2105,0.5065,0.035
-0.1775,0.95,1.1275,-0.3865,-0.652,1.039,-0.0665,-0.161,-0.2025,-0.2595,-0.154,-0.217,-0.2105,0.5105,0.028
-0.1735,0.942,1.1155,-0.3845,-0.644,1.029,-0.0615,-0.156,-0.2,-0.2565,-0.153,-0.2155,-0.2105,0.51,0.034
-0.176,0.9375,1.1135,-0.381,-0.6445,1.026,-0.064,-0.157,-0.198,-0.2565,-0.1505,-0.213,-0.2085,0.5115,0.034
-0.1725,0.9405,1.113,-0.384,-0.642,1.027,-0.0605,-0.155,-0.196,-0.255,-0.149,-0.2115,-0.205,0.5115,0.0325
-0.169,0.944,1.1135,-0.3875,-0.6405,1.029,-0.061,-0.156,-0.1975,-0.256,-0.1495,-0.2135,-0.2035,0.514,0.0405
-0.1695,0.951,1.1205,-0.391,-0.6445,1.0355,-0.06,-0.158,-0.1975,-0.257,-0.1525,-0.2125,-0.2035,0.5175,0.033
-0.17,0.9405,1.1105,-0.3855,-0.6395,1.0255,-0.0525,-0.1545,-0.194,-0.254,-0.148,-0.2095,-0.2025,0.505,0.0285
-0.165,0.947,1.112,-0.391,-0.638,1.0295,-0.0525,-0.1485,-0.193,-0.2515,-0.1465,-0.2105,-0.203,0.5035,0.0295
-0.162,0.956,1.1175,-0.397,-0.6395,1.0365,-0.055,-0.1485,-0.1925,-0.25,-0.148,-0.2095,-0.2015,0.515,0.0335
-0.174,0.941,1.115,-0.3835,-0.644,1.0285,-0.054,-0.1475,-0.19,-0.2485,-0.144,-0.2075,-0.201,0.513,0.038
-0.176,0.9435,1.1195,-0.3835,-0.647,1.0315,-0.0505,-0.1445,-0.187,-0.2445,-0.1395,-0.2055,-0.2035,0.512,0.03
-0.1755,0.952,1.1275,-0.3885,-0.651,1.04,-0.0505,-0.146,-0.1865,-0.244,-0.1385,-0.205,-0.204,0.523,0.0305
-0.1735,0.963,1.137,-0.395,-0.6545,1.05,-0.0535,-0.1485,-0.1875,-0.2425,-0.14,-0.204,-0.203,0.535,0.0345
-0.166,0.9705,1.137,-0.402,-0.651,1.054,-0.058,-0.152,-0.189,-0.2425,-0.141,-0.204,-0.202,0.5365,0.034
-0.1635,0.964,1.1275,-0.4005,-0.645,1.046,-0.061,-0.154,-0.191,-0.246,-0.1425,-0.206,-0.202,0.527,0.034
-0.1575,0.9465,1.104,-0.3945,-0.63,1.025,-0.063,-0.153,-0.189,-0.243,-0.14,-0.203,-0.2005,0.514,0.045
-0.1495,0.9555,1.105,-0.403,-0.6265,1.03,-0.0675,-0.156,-0.1875,-0.2415,-0.137,-0.2,-0.1985,0.5205,0.047
-0.1495,0.974,1.1235,-0.412,-0.636,1.049,-0.0755,-0.163,-0.1925,-0.2455,-0.1395,-0.2025,-0.1985,0.5385,0.0455
-0.154,0.9625,1.117,-0.404,-0.635,1.04,-0.0825,-0.167,-0.195,-0.2465,-0.142,-0.2035,-0.1975,0.5355,0.054
-0.1545,0.967,1.122,-0.4065,-0.6375,1.0445,-0.0845,-0.1685,-0.1955,-0.246,-0.14,-0.2005,-0.1965,0.536,0.0525
-0.1505,0.974,1.1245,-0.4115,-0.637,1.049,-0.084,-0.1635,-0.1905,-0.2425,-0.135,-0.195,-0.1935,0.5365,0.055
-0.149,0.97,1.1195,-0.4105,-0.6335,1.0445,-0.0885,-0.1625,-0.1865,-0.2415,-0.1325,-0.1935,-0.1895,0.536,0.0545
-0.148,0.98,1.1285,-0.416,-0.638,1.0545,-0.0955,-0.171,-0.194,-0.247,-0.136,-0.1995,-0.189,0.5295,0.0435
-0.148,0.985,1.1325,-0.4185,-0.64,1.0585,-0.0985,-0.171,-0.1955,-0.248,-0.1375,-0.2,-0.188,0.523,0.04
-0.1435,0.9775,1.121,-0.417,-0.632,1.0495,-0.1015,-0.171,-0.1935,-0.2475,-0.137,-0.1995,-0.1855,0.52,0.041
-0.1365,0.9765,1.113,-0.42,-0.6245,1.045,-0.101,-0.1725,-0.192,-0.2475,-0.1355,-0.198,-0.1845,0.5215,0.0415
-0.1365,0.9805,1.117,-0.422,-0.6265,1.049,-0.1,-0.1715,-0.1915,-0.247,-0.133,-0.1975,-0.1875,0.5325,0.0385
-0.141,0.9705,1.1115,-0.415,-0.6255,1.041,-0.0975,-0.168,-0.1895,-0.244,-0.1325,-0.195,-0.188,0.5265,0.036
-0.142,0.969,1.111,-0.4135,-0.626,1.04,-0.096,-0.1695,-0.1895,-0.2445,-0.1335,-0.195,-0.1855,0.5275,0.0405
-0.141,0.9755,1.1165,-0.4175,-0.628,1.046,-0.1015,-0.174,-0.1925,-0.2495,-0.137,-0.1995,-0.186,0.5355,0.047
-0.14,0.966,1.106,-0.413,-0.6225,1.036,-0.0995,-0.1725,-0.1915,-0.249,-0.1375,-0.1975,-0.1855,0.533,0.058
-0.1335,0.9675,1.1005,-0.417,-0.6165,1.034,-0.102,-0.1745,-0.195,-0.25,-0.1385,-0.199,-0.1845,0.5275,0.0575
-0.1365,0.966,1.102,-0.415,-0.6185,1.034,-0.108,-0.1805,-0.1985,-0.2545,-0.14,-0.201,-0.186,0.5255,0.054
-0.1435,0.9605,1.1035,-0.4085,-0.623,1.032,-0.1115,-0.187,-0.2045,-0.257,-0.1425,-0.2025,-0.19,0.531,0.057
-0.137,0.9625,1.0995,-0.413,-0.618,1.031,-0.116,-0.189,-0.21,-0.2595,-0.1445,-0.2045,-0.189,0.5225,0.05
-0.1325,0.968,1.1005,-0.4175,-0.6165,1.0345,-0.1135,-0.186,-0.207,-0.2585,-0.1405,-0.2005,-0.1865,0.522,0.0535
-0.1345,0.983,1.1175,-0.424,-0.6255,1.05,-0.113,-0.1875,-0.2045,-0.256,-0.136,-0.197,-0.189,0.547,0.059
-0.132,0.9715,1.104,-0.42,-0.6175,1.038,-0.1165,-0.187,-0.206,-0.2545,-0.137,-0.195,-0.185,0.5445,0.073
-0.1305,0.9565,1.087,-0.4125,-0.6085,1.0215,-0.1225,-0.19,-0.2095,-0.2605,-0.14,-0.198,-0.181,0.5255,0.0845
-0.1345,0.9615,1.096,-0.4135,-0.6145,1.029,-0.1275,-0.196,-0.2125,-0.264,-0.1405,-0.1985,-0.183,0.5195,0.0735
-0.1275,0.968,1.096,-0.4205,-0.611,1.032,-0.1305,-0.1975,-0.2155,-0.264,-0.141,-0.1965,-0.18,0.5225,0.0835
-0.1185,0.971,1.089,-0.426,-0.6035,1.03,-0.1355,-0.199,-0.2175,-0.266,-0.14,-0.1945,-0.174,0.5255,0.089
-0.112,0.979,1.091,-0.4335,-0.601,1.035,-0.1365,-0.1995,-0.2135,-0.2635,-0.1385,-0.1925,-0.1705,0.53,0.077
-0.11,0.9895,1.0995,-0.4395,-0.6045,1.0445,-0.1375,-0.201,-0.214,-0.2635,-0.138,-0.194,-0.171,0.542,0.079
-0.1145,0.9885,1.103,-0.437,-0.608,1.0455,-0.138,-0.201,-0.2175,-0.266,-0.138,-0.195,-0.1735,0.5485,0.086
-0.1195,0.9875,1.107,-0.434,-0.6125,1.047,-0.134,-0.1985,-0.215,-0.2665,-0.1385,-0.193,-0.1755,0.551,0.0805
-0.127,0.978,1.105,-0.4255,-0.6155,1.0415,-0.131,-0.196,-0.2165,-0.2655,-0.1385,-0.1945,-0.178,0.5435,0.071
-0.1265,0.974,1.101,-0.4235,-0.6135,1.0375,-0.1305,-0.1965,-0.2165,-0.267,-0.14,-0.1965,-0.1785,0.534,0.0695
-0.13,0.98,1.11,-0.425,-0.6195,1.045,-0.1305,-0.197,-0.2175,-0.2705,-0.141,-0.1995,-0.1805,0.533,0.06
-0.134,0.9805,1.1145,-0.423,-0.6235,1.0475,-0.1265,-0.193,-0.213,-0.265,-0.1385,-0.1985,-0.183,0.5295,0.057
-0.1265,0.98,1.1065,-0.4265,-0.616,1.0435,-0.1245,-0.1915,-0.209,-0.261,-0.135,-0.1935,-0.1825,0.5275,0.0615
-0.1245,0.976,1.1005,-0.426,-0.6115,1.0385,-0.1245,-0.1905,-0.209,-0.2615,-0.1365,-0.196,-0.182,0.5245,0.062
-0.1215,0.984,1.105,-0.4315,-0.6125,1.0445,-0.1245,-0.1905,-0.206,-0.257,-0.136,-0.1945,-0.1805,0.526,0.0565
-0.117,0.984,1.101,-0.434,-0.608,1.0425,-0.1255,-0.1895,-0.2075,-0.2565,-0.134,-0.191,-0.175,0.523,0.058
-0.1255,0.9765,1.102,-0.4255,-0.613,1.039,-0.1225,-0.184,-0.2055,-0.255,-0.1325,-0.191,-0.1755,0.514,0.0605
-0.129,0.973,1.102,-0.422,-0.615,1.0375,-0.1185,-0.1805,-0.201,-0.249,-0.129,-0.188,-0.1745,0.516,0.0565
-0.125,0.977,1.102,-0.426,-0.613,1.0395,-0.1175,-0.1815,-0.2,-0.249,-0.1285,-0.188,-0.172,0.5165,0.0665
-0.128,0.9865,1.1145,-0.4295,-0.621,1.0505,-0.1195,-0.182,-0.202,-0.2515,-0.131,-0.1915,-0.1745,0.518,0.0675
-0.1275,0.9805,1.108,-0.4265,-0.6175,1.0445,-0.119,-0.182,-0.202,-0.2505,-0.1325,-0.1935,-0.1745,0.521,0.067
-0.1295,0.98,1.1095,-0.425,-0.619,1.045,-0.115,-0.1805,-0.1965,-0.2455,-0.1275,-0.1885,-0.176,0.5295,0.0645
-0.1285,0.979,1.1075,-0.4255,-0.6175,1.0435,-0.11,-0.176,-0.191,-0.243,-0.124,-0.184,-0.1735,0.534,0.057
-0.132,0.971,1.103,-0.4195,-0.617,1.037,-0.106,-0.1715,-0.1875,-0.2425,-0.124,-0.1875,-0.1745,0.5305,0.055
-0.138,0.969,1.107,-0.4155,-0.622,1.038,-0.1035,-0.167,-0.183,-0.239,-0.1225,-0.188,-0.1765,0.529,0.0435
-0.135,0.965,1.0995,-0.415,-0.617,1.032,-0.103,-0.1665,-0.183,-0.24,-0.125,-0.1895,-0.1755,0.5225,0.0425
-0.137,0.9635,1.1005,-0.4135,-0.6185,1.032,-0.102,-0.1665,-0.1845,-0.241,-0.124,-0.19,-0.177,0.522,0.05
-0.1345,0.964,1.099,-0.415,-0.6165,1.0315,-0.0995,-0.164,-0.1805,-0.237,-0.1215,-0.1875,-0.174,0.5265,0.045
-0.1275,0.96,1.0875,-0.416,-0.607,1.0235,-0.1045,-0.165,-0.183,-0.24,-0.124,-0.1885,-0.172,0.518,0.0435
-0.127,0.949,1.076,-0.4105,-0.601,1.0125,-0.1075,-0.167,-0.1855,-0.243,-0.127,-0.189,-0.172,0.499,0.0465
-0.127,0.9395,1.0665,-0.406,-0.5965,1.003,-0.107,-0.165,-0.1865,-0.2445,-0.1265,-0.1905,-0.1735,0.488,0.0465
-0.1295,0.933,1.063,-0.4015,-0.5955,0.998,-0.1095,-0.169,-0.1915,-0.2475,-0.128,-0.19,-0.1755,0.4855,0.0585
-0.145,0.9205,1.0655,-0.388,-0.6045,0.993,-0.1105,-0.176,-0.1975,-0.252,-0.132,-0.1925,-0.1825,0.487,0.0705
-0.1535,0.9165,1.07,-0.3815,-0.6115,0.993,-0.1105,-0.178,-0.2,-0.2535,-0.135,-0.198,-0.1875,0.4835,0.062
-0.156,0.916,1.072,-0.38,-0.6135,0.994,-0.1095,-0.1805,-0.2015,-0.254,-0.139,-0.202,-0.191,0.47,0.0525
-0.158,0.919,1.0765,-0.3805,-0.6165,0.9975,-0.111,-0.1845,-0.205,-0.2595,-0.143,-0.2065,-0.1945,0.4695,0.051
-0.1615,0.9175,1.079,-0.378,-0.6195,0.998,-0.112,-0.1865,-0.209,-0.265,-0.1485,-0.211,-0.1955,0.4685,0.0545
-0.167,0.897,1.064,-0.365,-0.615,0.9805,-0.1095,-0.1875,-0.2145,-0.2715,-0.156,-0.2155,-0.2,0.459,0.069
-0.164,0.8935,1.057,-0.3645,-0.61,0.9755,-0.107,-0.1885,-0.217,-0.275,-0.1595,-0.2185,-0.202,0.4655,0.072
-0.1665,0.8945,1.0605,-0.364,-0.613,0.9775,-0.1055,-0.186,-0.215,-0.2745,-0.16,-0.2205,-0.203,0.466,0.0735
-0.1665,0.895,1.0615,-0.364,-0.6135,0.978,-0.098,-0.18,-0.21,-0.2715,-0.1575,-0.219,-0.206,0.467,0.0805
-0.164,0.903,1.067,-0.3695,-0.615,0.985,-0.0925,-0.1745,-0.2055,-0.2675,-0.155,-0.216,-0.21,0.4735,0.0685
-0.165,0.8995,1.0645,-0.3675,-0.6145,0.9825,-0.0955,-0.1775,-0.2085,-0.268,-0.1545,-0.2155,-0.211,0.467,0.068
-0.1675,0.8965,1.064,-0.3645,-0.6155,0.9805,-0.1005,-0.1825,-0.2125,-0.272,-0.1575,-0.2195,-0.2105,0.457,0.067
-0.175,0.896,1.071,-0.3605,-0.6225,0.9835,-0.1035,-0.183,-0.217,-0.278,-0.161,-0.2245,-0.212,0.462,0.0555
-0.172,0.8935,1.066,-0.3605,-0.6185,0.9795,-0.1035,-0.1825,-0.216,-0.275,-0.159,-0.223,-0.2095,0.468,0.0625
-0.164,0.896,1.0595,-0.366,-0.6115,0.9775,-0.102,-0.181,-0.211,-0.2695,-0.154,-0.218,-0.2095,0.4685,0.0615
-0.159,0.906,1.065,-0.3735,-0.6115,0.9855,-0.1005,-0.1795,-0.208,-0.269,-0.1505,-0.215,-0.211,0.4745,0.0565
-0.1585,0.916,1.074,-0.379,-0.6155,0.995,-0.096,-0.176,-0.204,-0.2655,-0.148,-0.2105,-0.211,0.4705,0.055
-0.157,0.9105,1.0675,-0.377,-0.6115,0.989,-0.096,-0.175,-0.207,-0.268,-0.1495,-0.209,-0.2105,0.4605,0.0615
-0.1545,0.901,1.0555,-0.3735,-0.6045,0.9785,-0.0975,-0.1785,-0.21,-0.2735,-0.1525,-0.2115,-0.2085,0.4475,0.0645
-0.1545,0.8955,1.05,-0.3705,-0.6015,0.9725,-0.0965,-0.1785,-0.209,-0.274,-0.1525,-0.2125,-0.2105,0.433,0.0575
-0.167,0.864,1.031,-0.3485,-0.5985,0.9475,-0.103,-0.1825,-0.2155,-0.2795,-0.1595,-0.2175,-0.21,0.427,0.0725
-0.1865,0.8505,1.037,-0.332,-0.611,0.9435,-0.109,-0.189,-0.223,-0.285,-0.1655,-0.2235,-0.2095,0.4345,0.0665
